timestamp,New ECG Sample
3954.520767,167
3954.521745,197
3954.522762,205
3954.523765,210
3954.524821,198
3954.525762,175
3954.526753,180
3954.527767,154
3954.528808,95
3954.529746,75
3954.530785,90
3954.531783,80
3954.532767,29
3954.533746,-12
3954.53475,18
3954.535826,107
3954.536732,196
3954.537751,228
3954.538742,202
3954.539752,185
3954.540759,214
3954.54173,246
3954.542733,250
3954.543746,199
3954.544765,128
3954.545775,80
3954.546775,43
3954.547759,21
3954.548773,29
3954.549726,48
3954.550892,75
3954.55182,121
3954.552745,183
3954.553745,238
3954.554783,275
3954.555743,278
3954.556716,247
3954.557742,228
3954.558747,231
3954.559756,200
3954.56074,118
3954.561739,59
3954.562758,35
3954.563759,59
3954.564739,114
3954.565733,150
3954.566738,166
3954.567775,187
3954.568754,224
3954.569772,263
3954.570769,274
3954.571743,260
3954.572748,251
3954.573752,248
3954.574756,243
3954.575731,237
3954.576739,222
3954.577816,215
3954.578722,207
3954.579773,203
3954.580754,193
3954.581752,161
3954.582769,112
3954.583767,86
3954.584748,112
3954.585742,167
3954.586743,248
3954.587755,306
3954.588757,300
3954.589713,262
3954.590734,218
3954.591736,181
3954.592733,167
3954.593727,179
3954.594715,190
3954.595707,207
3954.596772,224
3954.597798,235
3954.598777,230
3954.600565,184
3954.600762,129
3954.601749,100
3954.602768,120
3954.60374,162
3954.604755,213
3954.605741,250
3954.606718,260
3954.607737,248
3954.608763,253
3954.609803,250
3954.610741,216
3954.611723,155
3954.612743,113
3954.613737,101
3954.614734,103
3954.61575,113
3954.616741,116
3954.617732,149
3954.618751,227
3954.619748,286
3954.620754,304
3954.621766,296
3954.622727,280
3954.623768,266
3954.624734,250
3954.625758,216
3954.626754,173
3954.627746,140
3954.62876,84
3954.629729,9
3954.630775,-38
3954.631773,-41
3954.632756,-13
3954.633756,32
3954.634735,84
3954.635757,141
3954.636775,177
3954.637753,193
3954.638745,202
3954.639771,203
3954.640752,212
3954.64173,203
3954.642735,189
3954.64374,187
3954.64474,171
3954.6458,140
3954.647428,113
3954.647753,112
3954.648746,176
3954.64975,230
3954.650753,260
3954.651752,264
3954.65273,246
3954.653745,251
3954.654718,264
3954.655746,244
3954.656722,206
3954.657719,177
3954.658728,163
3954.659778,149
3954.660726,118
3954.662462,86
3954.662769,42
3954.663736,2
3954.664758,-22
3954.665778,-39
3954.666739,-40
3954.667759,-11
3954.668743,34
3954.669742,91
3954.67074,149
3954.671762,205
3954.672754,266
3954.673744,306
3954.67471,304
3954.675709,261
3954.676731,219
3954.677712,221
3954.678725,243
3954.679722,245
3954.680711,223
3954.681767,204
3954.682753,167
3954.683739,160
3954.684727,200
3954.685759,244
3954.686747,267
3954.687739,274
3954.688759,265
3954.689717,226
3954.690772,169
3954.691726,128
3954.692732,111
3954.693723,78
3954.694732,58
3954.69577,81
3954.696736,125
3954.697753,180
3954.698745,230
3954.699737,252
3954.70073,284
3954.701744,327
3954.702752,367
3954.703724,425
3954.704703,478
3954.705743,504
3954.706779,512
3954.707707,520
3954.708708,521
3954.709707,483
3954.71072,456
3954.711708,444
3954.712711,445
3954.713718,483
3954.714712,549
3954.715743,615
3954.716725,687
3954.717732,793
3954.718743,907
3954.719726,1020
3954.720733,1116
3954.721726,1184
3954.722729,1198
3954.723744,1162
3954.724722,1089
3954.725712,1028
3954.72671,956
3954.727715,863
3954.728725,787
3954.729727,731
3954.730702,669
3954.731724,601
3954.732734,559
3954.73374,534
3954.734752,498
3954.735714,458
3954.736725,412
3954.73774,373
3954.738719,321
3954.739727,253
3954.740738,202
3954.741738,171
3954.742727,139
3954.743726,90
3954.744718,37
3954.745717,-18
3954.746713,-63
3954.747717,-80
3954.748727,-81
3954.749737,-63
3954.750748,-14
3954.751749,50
3954.752736,139
3954.753748,208
3954.754737,253
3954.755802,292
3954.756741,277
3954.757718,193
3954.75873,137
3954.759736,129
3954.76073,131
3954.761718,125
3954.762724,102
3954.763733,87
3954.764731,99
3954.765747,126
3954.766736,154
3954.767743,170
3954.768778,180
3954.769983,207
3954.770974,243
3954.771991,264
3954.772977,259
3954.77398,267
3954.774974,299
3954.775958,298
3954.776955,257
3954.777944,218
3954.778952,175
3954.779958,106
3954.780971,51
3954.781952,19
3954.782952,21
3954.783928,68
3954.784964,142
3954.785982,224
3954.786949,291
3954.787945,317
3954.788931,315
3954.789944,300
3954.790944,280
3954.791944,257
3954.792952,225
3954.793953,176
3954.794941,134
3954.795917,107
3954.796915,103
3954.797912,112
3954.798923,129
3954.799912,158
3954.8009,232
3954.801896,313
3954.802922,376
3954.803892,427
3954.804877,441
3954.805893,418
3954.80692,378
3954.807893,339
3954.808923,272
3954.809904,195
3954.810877,122
3954.811906,79
3954.812903,65
3954.813904,71
3954.814892,104
3954.815911,177
3954.816883,253
3954.817869,293
3954.818917,323
3954.819873,377
3954.820903,410
3954.82189,401
3954.822889,376
3954.82387,334
3954.824887,290
3954.825877,254
3954.8269,223
3954.827871,179
3954.82886,123
3954.829862,69
3954.830848,53
3954.831864,70
3954.83287,112
3954.83385,206
3954.834859,282
3954.835835,299
3954.836839,317
3954.837865,362
3954.838869,392
3954.839888,374
3954.840825,331
3954.841821,299
3954.84283,281
3954.843828,270
3954.844825,263
3954.845825,241
3954.846857,200
3954.84783,146
3954.84882,101
3954.849825,99
3954.850813,167
3954.85183,261
3954.852826,320
3954.853819,375
3954.854807,424
3954.855802,434
3954.856796,401
3954.857805,352
3954.858839,327
3954.859805,303
3954.8608,250
3954.86179,192
3954.862826,157
3954.863817,137
3954.864806,117
3954.865807,110
3954.866801,126
3954.867766,196
3954.868821,271
3954.86979,343
3954.87075,417
3954.871802,455
3954.872779,459
3954.873789,452
3954.87477,428
3954.875756,389
3954.876738,327
3954.87776,274
3954.878773,231
3954.879763,195
3954.880775,187
3954.881784,198
3954.882786,231
3954.883738,283
3954.884764,335
3954.88575,378
3954.886753,424
3954.88775,464
3954.888765,453
3954.889757,426
3954.890712,436
3954.891762,433
3954.892738,375
3954.893741,317
3954.894743,315
3954.895745,322
3954.896748,312
3954.89775,307
3954.898752,328
3954.899754,370
3954.900757,436
3954.901759,509
3954.902761,557
3954.903764,569
3954.904766,533
3954.905762,474
3954.9067,412
3954.907713,368
3954.908734,349
3954.909731,333
3954.910719,326
3954.911735,336
3954.912733,337
3954.91377,331
3954.914695,316
3954.915735,299
3954.916723,318
3954.917726,369
3954.918736,392
3954.919747,388
3954.920736,433
3954.921725,494
3954.922726,529
3954.923696,500
3954.924743,424
3954.925706,359
3954.926714,315
3954.927707,285
3954.928708,287
3954.929727,344
3954.930761,414
3954.931738,450
3954.932727,444
3954.933719,440
3954.934734,467
3954.935753,505
3954.936745,539
3954.937728,556
3954.938716,550
3954.939704,506
3954.94073,442
3954.941695,421
3954.942711,443
3954.943732,467
3954.944694,453
3954.945691,399
3954.946735,349
3954.947743,352
3954.948737,388
3954.949728,428
3954.950727,455
3954.951751,454
3954.952716,479
3954.953748,540
3954.954699,571
3954.955737,571
3954.956721,523
3954.958473,459
3954.958775,413
3954.959731,387
3954.960713,365
3954.961713,353
3954.962726,338
3954.963743,342
3954.964739,379
3954.965729,408
3954.96674,400
3954.967735,414
3954.968721,457
3954.969781,476
3954.970703,483
3954.971771,463
3954.972728,428
3954.973723,388
3954.974719,330
3954.975708,262
3954.97671,189
3954.977728,149
3954.978713,134
3954.979704,132
3954.980742,144
3954.98183,174
3954.982749,224
3954.983719,282
3954.98473,339
3954.985738,377
3954.986719,431
3954.987784,501
3954.988717,542
3954.989726,504
3954.990719,442
3954.991721,403
3954.992798,373
3954.993821,349
3954.9947,316
3954.995708,261
3954.996706,199
3954.997763,160
3954.998737,133
3954.999745,101
3955.000743,114
3955.001745,191
3955.002727,241
3955.004735,240
3955.005089,248
3955.006333,259
3955.006728,257
3955.00772,229
3955.008719,204
3955.009756,198
3955.010726,180
3955.011726,127
3955.012704,78
3955.013739,42
3955.014748,62
3955.015784,97
3955.0168,110
3955.017737,138
3955.01878,173
3955.01983,197
3955.020736,203
3955.021741,193
3955.022709,186
3955.023742,159
3955.024717,134
3955.025699,118
3955.026706,85
3955.027725,53
3955.028828,38
3955.029726,28
3955.030708,37
3955.031739,66
3955.032744,101
3955.033736,130
3955.03471,163
3955.035785,184
3955.036735,171
3955.037733,164
3955.03874,156
3955.039818,143
3955.040715,130
3955.041709,117
3955.042748,105
3955.043745,102
3955.044713,99
3955.045711,74
3955.04669,67
3955.047723,95
3955.048748,142
3955.049735,183
3955.050728,185
3955.051881,161
3955.052732,145
3955.053723,135
3955.054714,131
3955.05573,123
3955.05671,110
3955.057713,82
3955.058714,50
3955.059714,28
3955.060736,1
3955.061706,-10
3955.062789,42
3955.063689,115
3955.064746,172
3955.065744,193
3955.066718,190
3955.067778,196
3955.068753,187
3955.06973,160
3955.070738,144
3955.071752,153
3955.072705,135
3955.073728,102
3955.074719,96
3955.075725,96
3955.0767,74
3955.077715,59
3955.078717,103
3955.079753,165
3955.080699,201
3955.081701,235
3955.082733,284
3955.083754,308
3955.084738,320
3955.085736,316
3955.086745,298
3955.087727,266
3955.088717,249
3955.089731,247
3955.090718,217
3955.091729,166
3955.092727,133
3955.093723,117
3955.094778,90
3955.095712,48
3955.0967,23
3955.097698,46
3955.098724,72
3955.099761,80
3955.100734,94
3955.101734,150
3955.102737,225
3955.10374,271
3955.104716,281
3955.105742,252
3955.106746,199
3955.107721,177
3955.108721,184
3955.109723,160
3955.110708,120
3955.111702,98
3955.112716,82
3955.113697,51
3955.114713,38
3955.115724,59
3955.116724,118
3955.117738,199
3955.118727,259
3955.119748,303
3955.120735,341
3955.121716,334
3955.122766,298
3955.123725,237
3955.124742,169
3955.125713,139
3955.126737,135
3955.12772,122
3955.128736,85
3955.129703,43
3955.130722,33
3955.131706,64
3955.132741,98
3955.133748,129
3955.134749,160
3955.135726,166
3955.136751,157
3955.13775,157
3955.138721,124
3955.139728,80
3955.140727,108
3955.141731,176
3955.142733,177
3955.143722,131
3955.144788,90
3955.145745,78
3955.146732,94
3955.147728,147
3955.148716,192
3955.149725,207
3955.150737,213
3955.151735,204
3955.152732,189
3955.153732,164
3955.154715,148
3955.155728,157
3955.156739,140
3955.157747,113
3955.158739,105
3955.159739,101
3955.160726,74
3955.161768,34
3955.162726,30
3955.163715,59
3955.164715,96
3955.165714,146
3955.166705,201
3955.167732,249
3955.168748,259
3955.169725,256
3955.170737,249
3955.171738,240
3955.172724,227
3955.173742,213
3955.174727,190
3955.175726,163
3955.176757,147
3955.177777,114
3955.178717,63
3955.179719,7
3955.180726,-19
3955.181723,18
3955.182704,89
3955.183705,170
3955.184725,225
3955.185738,254
3955.186733,292
3955.187738,324
3955.188731,314
3955.189714,286
3955.190718,241
3955.191708,177
3955.192731,135
3955.193733,114
3955.194708,106
3955.195706,115
3955.196717,117
3955.197703,107
3955.198695,108
3955.199704,133
3955.200722,160
3955.201747,192
3955.20275,238
3955.20373,271
3955.204734,284
3955.205737,271
3955.206768,223
3955.20773,181
3955.20873,174
3955.209705,162
3955.210716,129
3955.211748,91
3955.212718,73
3955.213727,74
3955.214736,77
3955.215705,71
3955.216701,69
3955.217686,55
3955.218736,53
3955.219712,86
3955.220737,174
3955.221755,263
3955.222736,287
3955.223828,296
3955.224688,308
3955.225712,286
3955.226712,228
3955.22772,145
3955.228729,76
3955.229722,23
3955.230699,7
3955.231679,50
3955.232714,102
3955.233707,119
3955.234694,139
3955.235754,191
3955.236726,253
3955.237736,293
3955.238734,278
3955.239715,229
3955.240707,172
3955.241718,112
3955.242715,66
3955.243722,52
3955.244718,66
3955.245709,77
3955.246713,88
3955.24769,100
3955.248694,92
3955.249698,107
3955.250696,148
3955.251706,188
3955.252729,231
3955.253724,263
3955.254817,269
3955.255715,266
3955.256739,238
3955.257719,203
3955.258714,179
3955.25971,155
3955.260734,125
3955.261701,77
3955.262706,31
3955.263704,26
3955.264699,31
3955.265705,51
3955.266716,119
3955.267694,212
3955.268715,292
3955.269747,308
3955.270783,304
3955.271752,289
3955.272773,247
3955.273719,202
3955.274726,161
3955.275705,115
3955.276724,74
3955.277701,58
3955.278714,35
3955.279719,2
3955.280716,-9
3955.281709,32
3955.282723,83
3955.283698,104
3955.284703,130
3955.285708,152
3955.286734,163
3955.287745,193
3955.288708,223
3955.289722,218
3955.290839,166
3955.291709,76
3955.292727,-5
3955.293742,-50
3955.294744,-91
3955.295715,-99
3955.296726,-61
3955.297704,18
3955.298699,136
3955.299707,234
3955.300709,275
3955.301839,300
3955.302711,317
3955.303716,309
3955.304744,278
3955.305755,231
3955.30676,193
3955.307709,167
3955.308748,133
3955.309752,83
3955.310737,57
3955.311712,44
3955.312802,13
3955.313736,-17
3955.314704,-11
3955.315721,27
3955.316708,85
3955.317722,173
3955.318712,263
3955.319724,317
3955.320744,336
3955.321728,327
3955.322733,295
3955.323743,261
3955.324816,241
3955.325719,230
3955.32673,166
3955.327737,81
3955.328728,32
3955.329727,4
3955.33071,-13
3955.331707,26
3955.332724,84
3955.333718,142
3955.334711,185
3955.335991,212
3955.336708,227
3955.3378,230
3955.33872,198
3955.339738,140
3955.340725,100
3955.341723,111
3955.342698,128
3955.343764,124
3955.344705,90
3955.345732,49
3955.346804,41
3955.347702,59
3955.348705,75
3955.349735,86
3955.350696,116
3955.35169,163
3955.352697,197
3955.353705,244
3955.354735,284
3955.355738,272
3955.356739,219
3955.357756,162
3955.358699,128
3955.359697,93
3955.360711,63
3955.361703,49
3955.362704,39
3955.363715,6
3955.364711,-18
3955.365766,1
3955.366688,61
3955.367713,131
3955.368729,180
3955.369762,219
3955.370712,246
3955.37177,243
3955.372724,215
3955.373732,209
3955.374723,203
3955.375702,163
3955.376716,124
3955.377704,133
3955.378703,166
3955.379716,160
3955.380702,147
3955.381702,120
3955.382718,104
3955.383717,104
3955.384715,126
3955.385718,189
3955.386679,254
3955.387682,247
3955.388773,206
3955.389744,209
3955.39071,248
3955.39172,256
3955.392812,219
3955.393707,173
3955.394754,132
3955.395725,66
3955.396731,7
3955.397734,-25
3955.398735,-17
3955.399713,24
3955.400712,85
3955.401707,186
3955.402711,281
3955.40373,313
3955.404711,292
3955.405738,274
3955.406733,267
3955.407739,250
3955.408724,235
3955.409732,216
3955.410737,182
3955.411739,136
3955.412709,79
3955.413746,75
3955.414714,114
3955.415779,161
3955.416704,195
3955.4177,216
3955.418703,233
3955.419697,239
3955.4207,243
3955.421693,249
3955.422716,245
3955.423734,206
3955.424717,171
3955.42573,138
3955.426713,96
3955.42771,63
3955.428828,51
3955.429743,72
3955.430714,99
3955.431729,82
3955.432719,41
3955.43372,41
3955.43471,83
3955.435711,116
3955.436713,118
3955.437713,117
3955.438685,122
3955.439721,129
3955.440748,129
3955.441715,134
3955.442739,146
3955.443735,154
3955.444726,126
3955.445732,79
3955.446717,51
3955.447711,50
3955.448694,53
3955.449703,67
3955.45071,83
3955.451709,95
3955.452696,105
3955.453708,145
3955.454723,195
3955.455699,223
3955.456714,222
3955.457751,198
3955.458717,150
3955.45972,100
3955.460728,51
3955.461718,7
3955.462721,-15
3955.463731,-2
3955.464703,59
3955.4657,111
3955.466702,136
3955.467722,169
3955.468722,201
3955.469709,212
3955.470702,246
3955.471804,254
3955.472696,194
3955.473754,105
3955.474727,68
3955.475724,49
3955.476742,-12
3955.477724,-61
3955.478725,-40
3955.479718,13
3955.480711,54
3955.481713,62
3955.482761,52
3955.483712,60
3955.484728,92
3955.485712,116
3955.486677,147
3955.487725,195
3955.488716,229
3955.4897,234
3955.490723,203
3955.491727,140
3955.492804,87
3955.493725,57
3955.494744,37
3955.495701,30
3955.496717,14
3955.497725,6
3955.498717,29
3955.49975,80
3955.50071,121
3955.501711,121
3955.502706,110
3955.50377,122
3955.504711,162
3955.505697,193
3955.5067,204
3955.507716,191
3955.508779,139
3955.509749,44
3955.510726,-41
3955.511724,-80
3955.512704,-90
3955.513713,-42
3955.514715,17
3955.515745,80
3955.516686,147
3955.517713,179
3955.518748,174
3955.519743,193
3955.520695,241
3955.521716,279
3955.522717,292
3955.523714,272
3955.524749,257
3955.525743,253
3955.526719,220
3955.527691,170
3955.528711,134
3955.52972,134
3955.53073,165
3955.531711,235
3955.532747,334
3955.533767,438
3955.534723,546
3955.535722,669
3955.536717,771
3955.537699,841
3955.538755,830
3955.539695,779
3955.540701,762
3955.541733,806
3955.542732,869
3955.543711,924
3955.54471,946
3955.545712,929
3955.546725,912
3955.547717,902
3955.548765,882
3955.549848,845
3955.550692,834
3955.551695,827
3955.552706,782
3955.553697,731
3955.55471,672
3955.555684,587
3955.55673,477
3955.557683,397
3955.558721,327
3955.559708,221
3955.560766,93
3955.561732,-25
3955.562722,-86
3955.563775,-81
3955.564717,-59
3955.565716,-60
3955.566747,-75
3955.567706,-75
3955.568711,-54
3955.569705,-16
3955.570714,18
3955.571681,48
3955.57269,82
3955.573699,71
3955.574694,23
3955.575707,-29
3955.576727,-54
3955.577718,-61
3955.578723,-76
3955.579703,-100
3955.580706,-93
3955.581695,-55
3955.582758,-15
3955.583699,14
3955.584687,71
3955.585691,125
3955.586723,154
3955.587668,158
3955.588692,133
3955.589682,95
3955.5907,78
3955.591714,80
3955.592723,78
3955.593708,65
3955.594958,60
3955.595941,50
3955.596928,37
3955.59794,36
3955.598941,52
3955.599933,58
3955.600929,50
3955.601931,72
3955.602956,115
3955.603964,138
3955.605578,159
3955.605935,159
3955.606946,114
3955.607924,78
3955.608941,54
3955.609923,25
3955.610932,13
3955.611912,16
3955.61296,31
3955.613904,34
3955.614932,-7
3955.615947,-53
3955.616911,-19
3955.617905,54
3955.618895,128
3955.619903,194
3955.620962,250
3955.621913,261
3955.622864,222
3955.623897,139
3955.624893,71
3955.62589,56
3955.626882,56
3955.627872,36
3955.628893,21
3955.629884,42
3955.630887,59
3955.631888,67
3955.632881,78
3955.633893,90
3955.634907,114
3955.635865,139
3955.636871,151
3955.637867,160
3955.638945,178
3955.639852,148
3955.640863,93
3955.641861,47
3955.642854,29
3955.643851,24
3955.644861,33
3955.645835,46
3955.646845,46
3955.647835,29
3955.648848,20
3955.649837,35
3955.650836,76
3955.652532,136
3955.652895,198
3955.653867,269
3955.654833,278
3955.655848,238
3955.656822,178
3955.657836,147
3955.658837,165
3955.659826,173
3955.660823,152
3955.66183,112
3955.662848,57
3955.663818,-4
3955.664847,-47
3955.665824,-40
3955.666828,10
3955.667955,79
3955.669164,150
3955.669809,208
3955.670818,228
3955.671812,239
3955.672815,219
3955.673798,178
3955.674807,147
3955.67581,112
3955.676801,92
3955.677819,89
3955.678817,87
3955.679812,57
3955.680834,39
3955.68181,34
3955.682799,42
3955.683793,71
3955.684808,122
3955.685783,188
3955.686766,237
3955.687775,243
3955.688798,229
3955.689773,206
3955.690784,162
3955.69178,103
3955.692762,53
3955.693757,35
3955.694766,46
3955.695773,76
3955.696752,100
3955.697753,129
3955.698771,170
3955.699752,168
3955.700778,135
3955.701729,147
3955.702753,206
3955.703745,253
3955.70474,284
3955.705746,300
3955.706713,288
3955.707745,253
3955.708749,220
3955.709728,192
3955.710729,167
3955.711743,145
3955.712734,139
3955.713721,143
3955.714722,129
3955.715723,110
3955.716728,121
3955.717723,149
3955.718705,205
3955.719696,296
3955.720725,358
3955.721742,388
3955.722718,396
3955.72372,368
3955.724723,281
3955.725734,196
3955.726716,164
3955.727709,175
3955.728706,201
3955.72969,192
3955.730692,167
3955.731698,145
3955.732711,138
3955.733788,176
3955.734729,230
3955.735726,262
3955.736715,313
3955.737723,381
3955.738714,422
3955.739731,390
3955.740706,319
3955.741741,264
3955.742744,234
3955.743725,225
3955.74474,208
3955.745698,159
3955.746695,142
3955.747688,182
3955.748692,244
3955.749695,293
3955.750732,351
3955.751728,398
3955.752736,381
3955.753753,333
3955.754712,299
3955.755728,282
3955.756731,258
3955.757701,221
3955.758723,197
3955.759698,156
3955.760696,126
3955.761697,108
3955.762703,101
3955.763717,124
3955.764699,172
3955.765733,232
3955.766698,270
3955.767714,284
3955.768731,335
3955.769727,421
3955.7707,469
3955.77174,461
3955.772707,404
3955.773691,330
3955.77472,270
3955.775772,238
3955.776681,201
3955.777713,162
3955.778704,157
3955.779724,170
3955.780701,170
3955.781694,145
3955.782696,138
3955.783806,177
3955.784715,240
3955.785732,289
3955.786724,320
3955.787726,310
3955.788733,283
3955.789757,249
3955.790698,235
3955.791703,242
3955.792708,246
3955.793726,234
3955.79471,206
3955.795731,168
3955.796699,145
3955.797689,155
3955.798697,148
3955.799683,140
3955.800708,149
3955.801711,173
3955.80272,199
3955.803714,207
3955.804694,210
3955.805717,217
3955.806699,190
3955.807701,156
3955.808701,128
3955.809703,76
3955.810719,12
3955.811695,-35
3955.812702,-21
3955.813698,51
3955.814701,113
3955.815728,125
3955.816697,107
3955.817724,96
3955.818716,104
3955.819727,129
3955.820717,125
3955.822706,64
3955.824679,15
3955.824727,-29
3955.825722,-75
3955.826722,-131
3955.827703,-163
3955.828706,-139
3955.829699,-113
3955.830716,-119
3955.831702,-123
3955.832704,-100
3955.833715,-47
3955.834674,21
3955.835709,62
3955.836709,71
3955.837721,81
3955.838696,98
3955.839707,92
3955.840691,64
3955.841701,39
3955.842702,26
3955.843706,16
3955.844702,-9
3955.845691,-58
3955.846685,-133
3955.847688,-176
3955.848689,-164
3955.849699,-109
3955.850691,-26
3955.851698,56
3955.852726,110
3955.85376,113
3955.854709,93
3955.855726,35
3955.856734,-31
3955.857722,-57
3955.85873,-72
3955.859719,-89
3955.860718,-103
3955.861702,-110
3955.862704,-115
3955.863706,-133
3955.864711,-137
3955.865708,-138
3955.866689,-129
3955.867693,-85
3955.868702,-40
3955.870602,-17
3955.871073,5
3955.871716,1
3955.872714,-31
3955.873724,-66
3955.874729,-102
3955.875704,-127
3955.876715,-124
3955.877701,-97
3955.878716,-73
3955.879711,-82
3955.880699,-90
3955.88169,-80
3955.882734,-78
3955.883706,-90
3955.884696,-68
3955.885714,-15
3955.886728,6
3955.887712,-4
3955.888705,-25
3955.889705,-62
3955.890708,-94
3955.89171,-82
3955.892717,-67
3955.893722,-84
3955.894723,-116
3955.89572,-146
3955.896687,-163
3955.897717,-144
3955.898732,-94
3955.899724,-52
3955.900722,-18
3955.901702,13
3955.902703,13
3955.903722,15
3955.904719,43
3955.90572,48
3955.906718,10
3955.907714,-43
3955.908711,-91
3955.909729,-87
3955.910731,-55
3955.911711,-59
3955.912704,-87
3955.913691,-119
3955.914698,-142
3955.915703,-138
3955.916719,-86
3955.917708,-33
3955.918681,-14
3955.919698,-13
3955.920729,-12
3955.921736,-12
3955.92274,-3
3955.923693,1
3955.924725,-35
3955.925718,-90
3955.926711,-135
3955.927723,-131
3955.928706,-125
3955.929714,-121
3955.930694,-89
3955.931688,-47
3955.932709,-31
3955.933713,-16
3955.934695,31
3955.935691,64
3955.936683,78
3955.937716,70
3955.938702,60
3955.939723,61
3955.940738,63
3955.941754,48
3955.942769,-21
3955.943785,-112
3955.9448,-215
3955.945816,-290
3955.946831,-309
3955.947847,-296
3955.948862,-247
3955.949877,-160
3955.950893,-56
3955.951716,21
3955.952715,39
3955.95371,26
3955.954746,36
3955.955735,54
3955.956717,53
3955.95769,30
3955.958722,-23
3955.959722,-75
3955.960722,-84
3955.961708,-80
3955.963208,-90
3955.964089,-123
3955.964727,-146
3955.965706,-138
3955.966689,-103
3955.967703,-62
3955.968681,-28
3955.9697,20
3955.970689,51
3955.971737,64
3955.972719,75
3955.973728,44
3955.974715,-16
3955.975699,-48
3955.976721,-68
3955.977731,-93
3955.978696,-128
3955.979703,-154
3955.980728,-140
3955.981691,-103
3955.982709,-77
3955.983726,-44
3955.984708,1
3955.985709,31
3955.986717,69
3955.987692,115
3955.988697,121
3955.989734,50
3955.990722,-39
3955.991722,-86
3955.992723,-117
3955.993724,-119
3955.994704,-130
3955.995702,-144
3955.996719,-146
3955.997706,-135
3955.998705,-105
3955.999702,-51
3956.000746,2
3956.001699,23
3956.002704,27
3956.003701,36
3956.00473,54
3956.00573,68
3956.006705,57
3956.007723,24
3956.00872,-20
3956.009947,-72
3956.011103,-109
3956.011718,-156
3956.0127,-192
3956.013699,-170
3956.014694,-114
3956.015742,-81
3956.016701,-86
3956.0177,-125
3956.018706,-141
3956.019675,-103
3956.020675,-51
3956.021729,-11
3956.022703,21
3956.023722,18
3956.024787,-8
3956.025709,-36
3956.026721,-49
3956.027712,-61
3956.028698,-100
3956.029695,-120
3956.030701,-115
3956.031695,-96
3956.03272,-79
3956.033694,-65
3956.034701,-58
3956.035703,-39
3956.036682,8
3956.037691,15
3956.038696,-12
3956.039746,-37
3956.040887,-46
3956.041707,-50
3956.042748,-63
3956.043733,-83
3956.044696,-140
3956.045701,-212
3956.046715,-231
3956.047707,-166
3956.048687,-96
3956.049706,-70
3956.050704,-58
3956.051738,-38
3956.052684,3
3956.053703,57
3956.054719,75
3956.055709,54
3956.056716,22
3956.057692,-13
3956.058703,-50
3956.059719,-88
3956.060709,-128
3956.061706,-154
3956.062696,-151
3956.063694,-139
3956.064706,-127
3956.065708,-113
3956.066714,-88
3956.067722,-34
3956.068693,25
3956.069695,57
3956.070695,53
3956.071696,20
3956.072705,-16
3956.073715,-4
3956.074708,21
3956.075694,17
3956.076753,-36
3956.077723,-126
3956.078702,-211
3956.079704,-256
3956.080711,-226
3956.081703,-159
3956.082736,-87
3956.083701,-11
3956.0847,8
3956.085693,4
3956.086747,-34
3956.087715,-99
3956.088697,-137
3956.089715,-139
3956.090731,-115
3956.091721,-132
3956.092709,-166
3956.093714,-189
3956.094743,-203
3956.095694,-204
3956.096706,-178
3956.097708,-125
3956.098699,-82
3956.099698,-58
3956.100784,-35
3956.101684,14
3956.102687,42
3956.103684,28
3956.104698,-8
3956.105709,-50
3956.106697,-92
3956.107729,-135
3956.10874,-178
3956.109718,-184
3956.110695,-178
3956.111695,-160
3956.11272,-118
3956.113701,-91
3956.114676,-78
3956.115766,-61
3956.116688,-27
3956.117691,14
3956.118688,44
3956.119677,55
3956.120672,46
3956.121683,32
3956.122674,-51
3956.123678,-150
3956.124707,-212
3956.125717,-223
3956.126699,-218
3956.127691,-240
3956.128685,-267
3956.129696,-270
3956.130732,-262
3956.131675,-245
3956.132681,-197
3956.133702,-125
3956.134677,-88
3956.135688,-79
3956.136659,-52
3956.137646,3
3956.13868,24
3956.139679,-3
3956.140684,-12
3956.14177,14
3956.142698,37
3956.143698,39
3956.144714,18
3956.145716,-34
3956.146691,-81
3956.147703,-97
3956.148688,-105
3956.149699,-107
3956.150695,-70
3956.151702,-11
3956.152698,20
3956.153747,22
3956.154673,4
3956.155692,-30
3956.156702,-75
3956.157708,-102
3956.158738,-123
3956.159708,-170
3956.160698,-183
3956.161696,-165
3956.162695,-163
3956.163706,-172
3956.164705,-167
3956.165709,-141
3956.166681,-127
3956.167713,-140
3956.168678,-107
3956.169682,-31
3956.170692,2
3956.171687,5
3956.172684,-2
3956.173692,3
3956.174674,11
3956.175732,-14
3956.176714,-78
3956.177702,-141
3956.178694,-172
3956.179708,-155
3956.180689,-119
3956.181703,-100
3956.182692,-75
3956.18368,-21
3956.184682,43
3956.185691,94
3956.186694,128
3956.187665,125
3956.188707,62
3956.189686,-12
3956.190711,-69
3956.191676,-121
3956.192706,-156
3956.193744,-145
3956.194701,-129
3956.195687,-156
3956.196699,-190
3956.197697,-179
3956.198693,-126
3956.199692,-70
3956.200684,-36
3956.201683,-11
3956.202675,-8
3956.203681,-19
3956.204695,-10
3956.205675,-15
3956.206679,-45
3956.207682,-77
3956.208676,-106
3956.209705,-118
3956.210699,-110
3956.211696,-120
3956.212705,-158
3956.213704,-155
3956.214693,-137
3956.215689,-114
3956.216689,-90
3956.217682,-44
3956.218668,7
3956.219683,14
3956.220698,-20
3956.221681,-53
3956.222673,-98
3956.223684,-134
3956.224666,-150
3956.225687,-145
3956.22672,-134
3956.227695,-127
3956.228685,-115
3956.229668,-79
3956.230682,-61
3956.231681,-50
3956.232679,-28
3956.233678,5
3956.234685,47
3956.235711,86
3956.236702,117
3956.23768,134
3956.238681,118
3956.239669,65
3956.240722,-13
3956.241669,-55
3956.242666,-93
3956.243706,-135
3956.244696,-150
3956.245699,-134
3956.246709,-90
3956.247712,-43
3956.248713,-21
3956.249688,4
3956.250716,35
3956.251693,35
3956.252682,37
3956.253664,23
3956.254652,14
3956.255661,32
3956.256658,36
3956.257676,-12
3956.258649,-90
3956.259668,-145
3956.2607,-143
3956.261688,-144
3956.262691,-167
3956.263687,-187
3956.264696,-185
3956.265727,-147
3956.266684,-87
3956.267677,-28
3956.268672,27
3956.269672,82
3956.270688,106
3956.271679,101
3956.272665,75
3956.273687,43
3956.274671,7
3956.275673,-44
3956.276667,-81
3956.277698,-100
3956.278678,-111
3956.279684,-95
3956.280672,-71
3956.281674,-81
3956.282687,-108
3956.283774,-125
3956.284672,-101
3956.285678,-33
3956.286683,23
3956.28768,2
3956.288668,-52
3956.289697,-90
3956.290693,-101
3956.29167,-87
3956.292664,-57
3956.29367,-50
3956.294687,-82
3956.295693,-127
3956.296691,-160
3956.297709,-154
3956.29872,-119
3956.299675,-117
3956.300716,-159
3956.301688,-202
3956.302685,-210
3956.303702,-193
3956.304678,-149
3956.305692,-75
3956.306723,-43
3956.30772,-52
3956.308648,-89
3956.30966,-133
3956.310669,-156
3956.311703,-148
3956.312704,-132
3956.31371,-111
3956.314681,-92
3956.315685,-65
3956.316694,8
3956.317686,73
3956.318688,113
3956.319704,143
3956.320674,139
3956.321677,80
3956.322673,-11
3956.323686,-69
3956.324645,-84
3956.325649,-120
3956.326666,-152
3956.327687,-174
3956.328705,-190
3956.329677,-173
3956.330694,-135
3956.331707,-95
3956.332671,-70
3956.333718,-42
3956.334685,-23
3956.335689,-12
3956.336695,-35
3956.337683,-63
3956.338705,-65
3956.339707,-61
3956.340671,-52
3956.341673,-44
3956.342692,-41
3956.343659,-45
3956.344697,-92
3956.345677,-161
3956.346702,-201
3956.347727,-181
3956.348752,-140
3956.349778,-97
3956.350719,-46
3956.351679,-14
3956.352688,16
3956.353679,54
3956.354669,32
3956.355694,-40
3956.356663,-96
3956.357677,-117
3956.358758,-138
3956.359671,-162
3956.360654,-164
3956.36167,-154
3956.362697,-133
3956.36369,-131
3956.364699,-128
3956.365694,-110
3956.366767,-69
3956.367684,-11
3956.368674,52
3956.369674,124
3956.370684,169
3956.371668,179
3956.372681,184
3956.373668,196
3956.374654,207
3956.37566,203
3956.376669,187
3956.377651,199
3956.378667,222
3956.379683,261
3956.380688,332
3956.381686,399
3956.382678,445
3956.383673,532
3956.384678,665
3956.385672,779
3956.386704,839
3956.38766,846
3956.388711,854
3956.389663,863
3956.390664,820
3956.391665,760
3956.392662,698
3956.393662,605
3956.394663,499
3956.395665,417
3956.396692,355
3956.397694,308
3956.398676,243
3956.399676,182
3956.40068,142
3956.401694,117
3956.402684,93
3956.403678,70
3956.404697,42
3956.405656,2
3956.406663,-45
3956.407687,-58
3956.408657,-75
3956.409659,-135
3956.410692,-203
3956.411661,-277
3956.412681,-325
3956.413709,-320
3956.4147,-279
3956.415682,-224
3956.416709,-159
3956.417686,-99
3956.418679,-64
3956.419673,-48
3956.420674,-55
3956.421684,-67
3956.422671,-83
3956.423696,-91
3956.424677,-105
3956.425656,-114
3956.42666,-120
3956.42766,-132
3956.428682,-149
3956.429693,-144
3956.430698,-118
3956.431727,-133
3956.432693,-187
3956.433672,-179
3956.434678,-142
3956.43568,-133
3956.436929,-99
3956.437974,-44
3956.438922,-9
3956.439937,-2
3956.44095,-36
3956.441912,-98
3956.442908,-148
3956.443906,-193
3956.444919,-252
3956.445924,-295
3956.446893,-269
3956.447905,-197
3956.448932,-132
3956.449901,-67
3956.450897,-26
3956.451913,-40
3956.452901,-49
3956.453929,-17
3956.454884,10
3956.455883,14
3956.456903,7
3956.457892,-11
3956.458893,-38
3956.459876,-61
3956.460882,-102
3956.46188,-135
3956.462884,-157
3956.463864,-177
3956.464866,-180
3956.465883,-146
3956.466872,-83
3956.467875,-6
3956.468859,49
3956.46984,60
3956.470874,21
3956.471851,-10
3956.472842,-19
3956.473856,-37
3956.474863,-65
3956.475857,-74
3956.476863,-93
3956.477858,-149
3956.478826,-224
3956.479842,-252
3956.480858,-202
3956.481842,-125
3956.48282,-79
3956.483861,-44
3956.484813,-12
3956.485851,44
3956.486817,108
3956.487837,136
3956.488831,124
3956.489838,87
3956.490844,67
3956.491842,41
3956.492831,-16
3956.493813,-81
3956.494822,-137
3956.49581,-173
3956.496803,-173
3956.497798,-119
3956.498841,-40
3956.499801,24
3956.50082,54
3956.501807,62
3956.50281,90
3956.503807,103
3956.504798,71
3956.505839,27
3956.506794,9
3956.507805,6
3956.508791,3
3956.50981,-25
3956.510775,-64
3956.511788,-81
3956.512792,-67
3956.513783,-56
3956.514778,-45
3956.51578,-21
3956.516779,5
3956.517784,40
3956.51878,84
3956.519779,121
3956.520791,137
3956.521769,139
3956.522765,104
3956.523757,46
3956.524773,-4
3956.525789,-36
3956.526834,-53
3956.527768,-43
3956.528767,-35
3956.529736,1
3956.530761,38
3956.531746,20
3956.532745,-52
3956.53373,-70
3956.534737,2
3956.535759,92
3956.536731,141
3956.537731,137
3956.538734,100
3956.539721,88
3956.54077,93
3956.541716,67
3956.542717,51
3956.543731,62
3956.544738,18
3956.545747,-67
3956.546731,-101
3956.547726,-98
3956.548723,-89
3956.549712,-56
3956.550737,-15
3956.55172,9
3956.552701,51
3956.553704,150
3956.554707,236
3956.555684,258
3956.556722,214
3956.55772,155
3956.558674,102
3956.559676,37
3956.560689,-31
3956.561689,-79
3956.562726,-79
3956.563688,-46
3956.564703,7
3956.56568,27
3956.566674,24
3956.567698,34
3956.568683,45
3956.569704,79
3956.570683,129
3956.571689,165
3956.572671,157
3956.573667,115
3956.574662,91
3956.575668,83
3956.576662,79
3956.577664,97
3956.578653,105
3956.579687,110
3956.580696,126
3956.58169,137
3956.582991,118
3956.58369,119
3956.584684,160
3956.585685,210
3956.586671,242
3956.587685,268
3956.588712,270
3956.589673,249
3956.590656,227
3956.591655,199
3956.592653,161
3956.593652,99
3956.594661,37
3956.595647,14
3956.596688,41
3956.597676,94
3956.598691,133
3956.599703,173
3956.60071,213
3956.601679,227
3956.602678,234
3956.603677,251
3956.604679,259
3956.60568,252
3956.606676,239
3956.607664,213
3956.608689,195
3956.609665,198
3956.610698,175
3956.611656,122
3956.612684,97
3956.613976,104
3956.614903,118
3956.61572,139
3956.616704,194
3956.617687,249
3956.618673,278
3956.619694,287
3956.620665,281
3956.621702,276
3956.622723,226
3956.62369,169
3956.624696,150
3956.625672,150
3956.626759,152
3956.627696,118
3956.628715,46
3956.629652,-7
3956.630701,-17
3956.631714,1
3956.632707,58
3956.633732,103
3956.634692,139
3956.635692,158
3956.636683,171
3956.637675,174
3956.638677,147
3956.639693,111
3956.640664,104
3956.641683,106
3956.642671,78
3956.643671,15
3956.644665,-46
3956.645758,-64
3956.64665,-81
3956.647689,-89
3956.648686,-60
3956.649695,-16
3956.650685,24
3956.651681,33
3956.652673,44
3956.653671,69
3956.654667,56
3956.655671,22
3956.656664,13
3956.657653,36
3956.658661,63
3956.659674,65
3956.660665,11
3956.662035,-95
3956.663007,-186
3956.66366,-219
3956.664713,-214
3956.665689,-202
3956.666675,-181
3956.667681,-139
3956.668686,-77
3956.669695,-9
3956.670682,22
3956.671701,15
3956.672691,-11
3956.673684,-52
3956.6747,-112
3956.675669,-169
3956.676656,-172
3956.678314,-145
3956.678669,-141
3956.67965,-166
3956.68065,-193
3956.681685,-197
3956.682691,-173
3956.683691,-120
3956.684683,-64
3956.685679,-15
3956.686696,49
3956.687678,79
3956.688665,55
3956.689676,2
3956.690679,-65
3956.691665,-141
3956.69266,-236
3956.693652,-300
3956.69468,-277
3956.695664,-208
3956.696692,-166
3956.697641,-164
3956.698714,-180
3956.699686,-186
3956.700693,-160
3956.701718,-123
3956.702682,-115
3956.703668,-112
3956.704686,-111
3956.705687,-138
3956.706668,-176
3956.707654,-181
3956.708661,-134
3956.709694,-102
3956.710676,-103
3956.711657,-144
3956.712693,-185
3956.713645,-209
3956.71467,-239
3956.715703,-232
3956.716677,-178
3956.717716,-127
3956.71869,-96
3956.719693,-70
3956.720674,-60
3956.721692,-87
3956.722685,-131
3956.723662,-157
3956.724683,-179
3956.725663,-202
3956.726661,-210
3956.727653,-222
3956.728649,-256
3956.729657,-280
3956.73066,-268
3956.731668,-268
3956.732673,-254
3956.733721,-211
3956.734675,-152
3956.735678,-88
3956.736675,-47
3956.737703,-25
3956.738688,-41
3956.739678,-62
3956.740675,-86
3956.741675,-129
3956.74267,-195
3956.743675,-261
3956.744666,-307
3956.745655,-316
3956.746704,-298
3956.747708,-290
3956.748665,-286
3956.749702,-246
3956.750675,-209
3956.751676,-175
3956.752683,-139
3956.753702,-133
3956.754693,-171
3956.755677,-228
3956.756676,-249
3956.757674,-242
3956.758664,-223
3956.759662,-222
3956.760659,-217
3956.76166,-195
3956.762654,-152
3956.763656,-97
3956.764652,-108
3956.76567,-143
3956.766688,-157
3956.767693,-151
3956.76868,-131
3956.769686,-107
3956.77073,-76
3956.771663,-53
3956.772664,-60
3956.773686,-55
3956.774663,-50
3956.775663,-102
3956.776669,-180
3956.777652,-232
3956.778647,-230
3956.779661,-205
3956.780664,-159
3956.781686,-120
3956.782656,-87
3956.783713,-66
3956.784677,-50
3956.785676,-40
3956.786762,-33
3956.78773,-52
3956.788685,-111
3956.789666,-175
3956.790682,-201
3956.791683,-210
3956.792678,-210
3956.793712,-215
3956.794674,-233
3956.79566,-236
3956.79667,-222
3956.797674,-206
3956.798648,-201
3956.799652,-183
3956.800708,-147
3956.801696,-113
3956.802662,-102
3956.803698,-56
3956.804677,-33
3956.805674,-68
3956.806684,-140
3956.807671,-190
3956.808668,-208
3956.809677,-214
3956.810675,-230
3956.811659,-249
3956.812685,-234
3956.813649,-172
3956.814655,-122
3956.815677,-118
3956.816705,-124
3956.817687,-115
3956.81871,-88
3956.819692,-52
3956.820685,-40
3956.821667,-71
3956.822684,-91
3956.823689,-69
3956.824684,-44
3956.825675,-61
3956.826661,-95
3956.827663,-125
3956.828672,-162
3956.829687,-203
3956.830674,-219
3956.83168,-234
3956.832674,-243
3956.833697,-209
3956.834704,-163
3956.835679,-141
3956.83669,-134
3956.837696,-132
3956.838699,-116
3956.839679,-99
3956.840705,-87
3956.841683,-106
3956.84266,-133
3956.843677,-131
3956.844671,-142
3956.845663,-140
3956.846661,-114
3956.847664,-106
3956.84867,-120
3956.849648,-117
3956.850677,-70
3956.851692,4
3956.852705,64
3956.853713,69
3956.854675,26
3956.855735,-19
3956.856724,-77
3956.857674,-128
3956.858657,-161
3956.859693,-168
3956.860678,-200
3956.861671,-280
3956.862677,-332
3956.863669,-310
3956.864654,-268
3956.865645,-219
3956.866662,-171
3956.867649,-137
3956.868716,-135
3956.869696,-143
3956.870686,-124
3956.87176,-103
3956.872698,-114
3956.873672,-135
3956.874675,-176
3956.875676,-227
3956.876709,-262
3956.87767,-287
3956.878668,-305
3956.879668,-296
3956.880665,-258
3956.881681,-157
3956.882644,-20
3956.883648,72
3956.884638,87
3956.885688,69
3956.886682,57
3956.887722,71
3956.888677,83
3956.889667,73
3956.890661,23
3956.891688,-34
3956.892688,-84
3956.893659,-133
3956.894652,-181
3956.895662,-216
3956.896662,-277
3956.897659,-329
3956.898692,-343
3956.89966,-316
3956.900654,-233
3956.901655,-105
3956.902679,13
3956.903668,58
3956.904668,22
3956.905668,-51
3956.90666,-105
3956.907665,-168
3956.90868,-217
3956.909667,-237
3956.910681,-251
3956.911669,-245
3956.912647,-225
3956.913725,-218
3956.91465,-202
3956.915683,-162
3956.916686,-82
3956.91769,-28
3956.918656,-22
3956.919706,-20
3956.920682,2
3956.921728,21
3956.922689,-9
3956.923666,-69
3956.924683,-109
3956.925687,-141
3956.92668,-169
3956.92768,-194
3956.92869,-237
3956.929672,-267
3956.930653,-263
3956.931662,-274
3956.932673,-275
3956.933707,-257
3956.934671,-216
3956.935661,-150
3956.936701,-95
3956.937688,-71
3956.938685,-77
3956.939679,-88
3956.940663,-81
3956.941646,-98
3956.942794,-137
3956.943677,-163
3956.944697,-185
3956.945679,-222
3956.946661,-257
3956.947676,-266
3956.948665,-242
3956.949662,-168
3956.950669,-107
3956.951648,-65
3956.952663,-50
3956.953679,-57
3956.954666,-53
3956.955718,-84
3956.956688,-112
3956.957694,-116
3956.958694,-135
3956.95965,-177
3956.960691,-215
3956.961699,-234
3956.962661,-235
3956.963671,-190
3956.964662,-145
3956.965654,-106
3956.966681,-53
3956.967691,-4
3956.96865,47
3956.969666,93
3956.970657,103
3956.971685,59
3956.972679,-4
3956.973658,-27
3956.974662,-35
3956.975691,-67
3956.976676,-121
3956.977669,-201
3956.979506,-267
3956.979692,-283
3956.980662,-238
3956.981658,-169
3956.982655,-127
3956.983699,-130
3956.98466,-169
3956.985648,-185
3956.986623,-154
3956.987747,-93
3956.988681,-52
3956.989703,-68
3956.99067,-94
3956.991672,-117
3956.992672,-144
3956.993644,-160
3956.994685,-177
3956.99566,-221
3956.996666,-250
3956.997667,-231
3956.99865,-164
3956.999638,-91
3957.000704,-30
3957.001658,19
3957.002666,56
3957.003629,69
3957.004689,56
3957.005669,28
3957.006668,-4
3957.007671,-19
3957.00867,-25
3957.009658,-43
3957.010664,-100
3957.011753,-202
3957.012647,-302
3957.013632,-356
3957.014645,-338
3957.015685,-252
3957.016675,-138
3957.01765,-52
3957.018651,12
3957.019666,50
3957.020633,51
3957.021664,12
3957.022663,-43
3957.023675,-72
3957.024649,-70
3957.02568,-97
3957.027299,-138
3957.027664,-186
3957.028651,-229
3957.029671,-263
3957.030661,-280
3957.031692,-246
3957.032665,-177
3957.033672,-104
3957.034641,-44
3957.03564,-9
3957.03664,-10
3957.037631,-28
3957.038673,-59
3957.039671,-107
3957.040664,-154
3957.041645,-202
3957.042646,-228
3957.043652,-225
3957.044646,-221
3957.045649,-218
3957.046647,-199
3957.04764,-153
3957.048627,-118
3957.049636,-124
3957.050651,-148
3957.051635,-141
3957.052636,-68
3957.053634,24
3957.054626,39
3957.055671,-15
3957.056677,-51
3957.057709,-45
3957.058668,-34
3957.059653,-34
3957.060654,-88
3957.061651,-167
3957.062652,-231
3957.063669,-269
3957.064633,-284
3957.065667,-281
3957.066627,-234
3957.067635,-165
3957.068631,-119
3957.069639,-95
3957.070716,-81
3957.071643,-97
3957.072724,-118
3957.07364,-113
3957.074652,-126
3957.075662,-185
3957.076657,-284
3957.077641,-382
3957.078688,-440
3957.07966,-454
3957.080638,-417
3957.081628,-338
3957.082701,-242
3957.08369,-121
3957.084635,-35
3957.08563,8
3957.086634,-10
3957.08764,-44
3957.088676,-73
3957.089677,-102
3957.090655,-113
3957.091663,-132
3957.09265,-180
3957.093738,-230
3957.094637,-272
3957.09565,-291
3957.096652,-286
3957.097651,-263
3957.098638,-242
3957.09964,-242
3957.100644,-260
3957.101636,-269
3957.102625,-208
3957.103643,-92
3957.104792,-18
3957.105618,9
3957.106671,-6
3957.107668,-78
3957.108659,-194
3957.109653,-266
3957.110636,-271
3957.111659,-243
3957.112649,-224
3957.113742,-217
3957.114634,-227
3957.115644,-240
3957.116753,-215
3957.117662,-160
3957.118659,-73
3957.119642,-13
3957.120665,4
3957.121627,-24
3957.122619,-86
3957.123686,-157
3957.12464,-201
3957.125642,-211
3957.126651,-209
3957.12768,-198
3957.128656,-186
3957.129648,-185
3957.130635,-190
3957.131627,-207
3957.132634,-206
3957.133679,-158
3957.134617,-67
3957.135631,53
3957.136664,147
3957.137633,197
3957.138809,211
3957.139619,191
3957.140647,168
3957.141672,139
3957.142648,128
3957.143645,148
3957.144632,155
3957.145621,158
3957.146627,184
3957.147634,221
3957.14865,271
3957.149684,333
3957.150629,416
3957.151613,504
3957.152633,569
3957.153637,585
3957.154633,574
3957.155616,567
3957.156641,573
3957.157645,553
3957.158644,486
3957.159653,381
3957.160662,307
3957.16165,237
3957.162671,155
3957.163641,81
3957.164635,6
3957.165638,-61
3957.166608,-120
3957.167621,-143
3957.168615,-196
3957.169638,-277
3957.170664,-344
3957.17163,-386
3957.17266,-410
3957.173591,-403
3957.174654,-310
3957.175651,-192
3957.176634,-170
3957.177643,-237
3957.178634,-324
3957.179644,-355
3957.180644,-342
3957.181644,-330
3957.182647,-316
3957.183678,-282
3957.184628,-240
3957.185625,-197
3957.186669,-163
3957.187626,-153
3957.188614,-143
3957.189665,-137
3957.190611,-143
3957.191639,-181
3957.192648,-217
3957.193638,-259
3957.194627,-300
3957.195636,-301
3957.196611,-274
3957.197623,-238
3957.198631,-202
3957.199831,-178
3957.200862,-154
3957.201868,-139
3957.202816,-134
3957.203823,-116
3957.204827,-106
3957.205852,-128
3957.206858,-165
3957.20785,-192
3957.208815,-221
3957.209817,-284
3957.210812,-344
3957.211828,-363
3957.212818,-319
3957.213823,-242
3957.21482,-216
3957.215847,-217
3957.216801,-198
3957.21783,-169
3957.218799,-149
3957.21982,-126
3957.220823,-104
3957.221827,-96
3957.22283,-118
3957.223797,-154
3957.224815,-165
3957.225794,-150
3957.2268,-155
3957.22777,-178
3957.22881,-191
3957.229787,-193
3957.2308,-213
3957.231777,-221
3957.232785,-212
3957.233786,-211
3957.234772,-175
3957.235773,-102
3957.236775,-41
3957.237769,-14
3957.238777,-31
3957.239774,-57
3957.240779,-65
3957.241784,-53
3957.242766,-53
3957.243757,-69
3957.244781,-68
3957.245773,-78
3957.246748,-87
3957.247756,-97
3957.248767,-127
3957.249747,-131
3957.250755,-68
3957.251737,11
3957.252753,85
3957.253746,111
3957.254766,70
3957.25574,12
3957.256738,-63
3957.257726,-128
3957.258745,-164
3957.259736,-220
3957.260726,-280
3957.261721,-301
3957.262711,-257
3957.263722,-189
3957.264725,-140
3957.265715,-102
3957.266728,-81
3957.267726,-65
3957.268714,-74
3957.269715,-84
3957.270718,-81
3957.271726,-58
3957.272719,-21
3957.273716,17
3957.27471,9
3957.275715,-54
3957.276687,-121
3957.277692,-157
3957.278725,-172
3957.279696,-181
3957.280691,-156
3957.281694,-84
3957.282694,-17
3957.283676,-5
3957.284681,4
3957.285691,33
3957.286672,55
3957.287669,64
3957.288681,27
3957.289682,-36
3957.290677,-84
3957.291677,-131
3957.292681,-190
3957.293677,-225
3957.294712,-217
3957.295675,-153
3957.296666,-84
3957.297658,-48
3957.298688,-21
3957.299646,5
3957.300649,14
3957.301667,1
3957.302646,-8
3957.303651,23
3957.304654,43
3957.305665,29
3957.306753,-28
3957.307666,-87
3957.308642,-138
3957.309643,-195
3957.310632,-241
3957.311639,-215
3957.312616,-113
3957.313638,-20
3957.314626,39
3957.315628,83
3957.316609,98
3957.317635,59
3957.318619,11
3957.319628,19
3957.320612,35
3957.321597,46
3957.32262,39
3957.323618,18
3957.324638,-33
3957.325645,-87
3957.326609,-94
3957.327619,-45
3957.328599,-14
3957.329612,-8
3957.330631,-2
3957.331653,27
3957.332615,35
3957.333653,22
3957.33462,45
3957.335643,117
3957.336626,184
3957.337652,221
3957.338615,228
3957.339636,201
3957.340598,175
3957.341639,134
3957.342606,44
3957.343597,-73
3957.344613,-161
3957.345624,-183
3957.346637,-150
3957.347615,-106
3957.348665,-77
3957.349637,-25
3957.35062,71
3957.351614,157
3957.352646,210
3957.353627,245
3957.354611,249
3957.355613,233
3957.356633,194
3957.35762,145
3957.358597,98
3957.359606,84
3957.360597,74
3957.361595,55
3957.362598,45
3957.363632,43
3957.364627,47
3957.365643,91
3957.366622,164
3957.367632,202
3957.368619,227
3957.369622,253
3957.370623,247
3957.37161,206
3957.372646,155
3957.373598,105
3957.374597,65
3957.375601,23
3957.37662,-4
3957.377602,-8
3957.378577,3
3957.379608,24
3957.38063,20
3957.381622,22
3957.382615,63
3957.383653,128
3957.384604,188
3957.385595,213
3957.386595,206
3957.387618,182
3957.388624,147
3957.389627,84
3957.390577,19
3957.391602,-3
3957.392636,32
3957.3936,73
3957.394604,65
3957.395594,8
3957.39661,-9
3957.397612,29
3957.398677,60
3957.39964,63
3957.400606,49
3957.401621,1
3957.40263,-71
3957.403626,-105
3957.404671,-79
3957.405647,-7
3957.406622,64
3957.407621,106
3957.408612,92
3957.409607,42
3957.410602,-16
3957.411592,-90
3957.412592,-134
3957.413599,-105
3957.414616,-72
3957.415623,-57
3957.416614,-30
3957.417636,-11
3957.418623,3
3957.41965,13
3957.420598,25
3957.421603,26
3957.422598,-47
3957.423594,-158
3957.424601,-233
3957.425602,-254
3957.426599,-242
3957.427585,-220
3957.428607,-214
3957.429606,-229
3957.430593,-254
3957.431618,-276
3957.43263,-270
3957.433676,-214
3957.434594,-144
3957.435623,-85
3957.436617,-44
3957.437603,-49
3957.438611,-95
3957.439611,-148
3957.440609,-175
3957.441612,-199
3957.442659,-239
3957.443579,-249
3957.444585,-241
3957.445584,-249
3957.446621,-243
3957.447582,-216
3957.448622,-200
3957.449629,-195
3957.450587,-176
3957.451592,-165
3957.452602,-155
3957.45361,-167
3957.454625,-215
3957.455616,-241
3957.456627,-240
3957.457621,-251
3957.458618,-250
3957.459603,-233
3957.460603,-223
3957.461628,-236
3957.462611,-262
3957.463583,-269
3957.464579,-262
3957.465601,-271
3957.466611,-281
3957.467632,-258
3957.468605,-181
3957.469594,-76
3957.470616,-36
3957.471606,-85
3957.472588,-152
3957.473588,-223
3957.474621,-309
3957.475647,-393
3957.476603,-421
3957.477586,-428
3957.478593,-442
3957.479583,-428
3957.480608,-373
3957.481629,-309
3957.482618,-232
3957.483598,-165
3957.484608,-120
3957.485624,-108
3957.48663,-97
3957.487632,-103
3957.4886,-128
3957.489603,-164
3957.490642,-189
3957.491614,-225
3957.492599,-256
3957.493594,-279
3957.49457,-289
3957.495589,-289
3957.496597,-278
3957.497608,-262
3957.498623,-247
3957.499592,-220
3957.500605,-185
3957.501605,-183
3957.502623,-199
3957.503628,-228
3957.504576,-268
3957.505577,-286
3957.506588,-244
3957.507591,-168
3957.50862,-148
3957.50959,-165
3957.510572,-194
3957.51158,-241
3957.512625,-260
3957.513624,-220
3957.514583,-166
3957.515603,-126
3957.516636,-99
3957.517619,-85
3957.518605,-64
3957.519624,-61
3957.520616,-102
3957.521604,-157
3957.522617,-199
3957.523616,-228
3957.52459,-236
3957.525626,-223
3957.526602,-214
3957.527592,-232
3957.528614,-264
3957.529573,-293
3957.530587,-309
3957.531588,-297
3957.53258,-260
3957.533596,-207
3957.534615,-148
3957.535614,-103
3957.536607,-119
3957.53762,-165
3957.538609,-190
3957.539598,-186
3957.540615,-174
3957.541633,-181
3957.542613,-184
3957.543617,-165
3957.544617,-184
3957.545567,-250
3957.546602,-297
3957.547589,-279
3957.548589,-258
3957.549589,-246
3957.550611,-202
3957.551606,-150
3957.552622,-118
3957.553627,-92
3957.554615,-76
3957.555587,-111
3957.556587,-165
3957.557657,-225
3957.558595,-265
3957.559603,-263
3957.560623,-271
3957.561566,-291
3957.562683,-292
3957.563584,-254
3957.564596,-205
3957.565592,-186
3957.566581,-183
3957.567588,-212
3957.568606,-238
3957.569593,-228
3957.570611,-199
3957.571622,-163
3957.572625,-103
3957.573639,-46
3957.574639,-38
3957.575583,-80
3957.576582,-126
3957.5776,-181
3957.578587,-221
3957.579582,-230
3957.580585,-205
3957.581587,-159
3957.582586,-116
3957.583579,-84
3957.584617,-65
3957.585603,-58
3957.586584,-83
3957.587615,-143
3957.588606,-181
3957.589591,-177
3957.590595,-158
3957.591622,-185
3957.592647,-245
3957.593615,-274
3957.59461,-317
3957.595607,-366
3957.596593,-362
3957.597597,-308
3957.598605,-251
3957.599599,-202
3957.600596,-161
3957.601601,-112
3957.602604,-56
3957.603599,-17
3957.60464,-13
3957.605592,-40
3957.606667,-89
3957.607613,-148
3957.608607,-179
3957.609593,-182
3957.61061,-194
3957.611607,-216
3957.612614,-240
3957.613582,-266
3957.6146,-270
3957.615604,-256
3957.616593,-229
3957.617584,-219
3957.6186,-203
3957.61962,-176
3957.620619,-147
3957.621599,-136
3957.623246,-134
3957.623617,-145
3957.624592,-172
3957.625602,-196
3957.62661,-215
3957.627581,-242
3957.628588,-261
3957.629593,-263
3957.630577,-246
3957.631589,-213
3957.632591,-175
3957.633617,-145
3957.634594,-120
3957.635613,-84
3957.636622,-59
3957.637596,-72
3957.638589,-123
3957.639627,-177
3957.640598,-192
3957.641622,-196
3957.642615,-181
3957.643597,-143
3957.644611,-168
3957.645586,-232
3957.64661,-289
3957.647588,-303
3957.648594,-280
3957.649594,-245
3957.650597,-207
3957.651572,-165
3957.652612,-90
3957.653624,-15
3957.654626,15
3957.655607,-29
3957.656599,-95
3957.657601,-153
3957.658596,-193
3957.659624,-209
3957.66058,-236
3957.66158,-276
3957.662593,-306
3957.663581,-331
3957.66458,-315
3957.665595,-284
3957.666602,-247
3957.667573,-209
3957.668872,-195
3957.670072,-184
3957.670612,-169
3957.671651,-154
3957.672614,-173
3957.673601,-212
3957.674596,-263
3957.675605,-328
3957.676586,-380
3957.677609,-429
3957.678602,-448
3957.679584,-414
3957.680593,-348
3957.681646,-261
3957.68259,-183
3957.683552,-119
3957.684735,-89
3957.686513,-83
3957.686597,-85
3957.687606,-54
3957.68861,-19
3957.689597,-17
3957.690626,-25
3957.691652,-35
3957.692584,-43
3957.693607,-64
3957.694613,-107
3957.695593,-169
3957.696579,-185
3957.697581,-177
3957.698569,-176
3957.699589,-161
3957.700617,-117
3957.701603,-79
3957.702556,-56
3957.703621,-56
3957.704572,-105
3957.705625,-141
3957.706618,-144
3957.707615,-145
3957.708585,-169
3957.709592,-229
3957.710598,-279
3957.711621,-300
3957.712582,-276
3957.713595,-238
3957.714596,-254
3957.715615,-300
3957.716594,-300
3957.717574,-232
3957.718575,-130
3957.719593,-22
3957.720621,37
3957.721621,11
3957.722593,-40
3957.723597,-93
3957.72463,-156
3957.725584,-237
3957.726588,-301
3957.727593,-284
3957.728583,-227
3957.729578,-159
3957.730593,-116
3957.73157,-94
3957.732572,-88
3957.733576,-73
3957.734583,-74
3957.735575,-58
3957.736571,-21
3957.737633,-3
3957.738618,-16
3957.739626,-45
3957.740616,-72
3957.741586,-121
3957.7426,-172
3957.743593,-224
3957.74459,-283
3957.745588,-319
3957.746573,-317
3957.747587,-288
3957.748582,-250
3957.74957,-212
3957.750576,-182
3957.751567,-137
3957.752564,-75
3957.753584,-48
3957.754744,-61
3957.756032,-66
3957.756899,-95
3957.757644,-180
3957.759131,-259
3957.7597,-287
3957.761094,-301
3957.762131,-311
3957.762588,-309
3957.763587,-288
3957.764595,-251
3957.765588,-206
3957.766587,-159
3957.767578,-134
3957.768589,-110
3957.769583,-80
3957.770582,-58
3957.771617,-51
3957.772576,-56
3957.77361,-80
3957.774624,-141
3957.77559,-207
3957.776589,-280
3957.777604,-358
3957.778605,-396
3957.779589,-375
3957.780591,-328
3957.781594,-272
3957.782582,-231
3957.78357,-161
3957.784608,-102
3957.785576,-78
3957.786571,-55
3957.78757,-43
3957.78858,-67
3957.78958,-132
3957.790591,-213
3957.791594,-315
3957.792609,-383
3957.793608,-400
3957.794567,-374
3957.795553,-344
3957.796584,-302
3957.7976,-231
3957.79862,-115
3957.799592,-3
3957.800588,18
3957.801574,-43
3957.802585,-102
3957.803587,-132
3957.804588,-137
3957.805609,-137
3957.806597,-147
3957.807611,-186
3957.808613,-245
3957.809597,-285
3957.810595,-292
3957.811576,-292
3957.812609,-271
3957.813637,-239
3957.814582,-232
3957.815617,-255
3957.816592,-261
3957.81761,-228
3957.818572,-201
3957.819597,-166
3957.82057,-137
3957.821595,-132
3957.822618,-169
3957.823603,-182
3957.824612,-199
3957.825615,-238
3957.826591,-279
3957.827584,-312
3957.828589,-320
3957.829586,-304
3957.830576,-248
3957.831582,-164
3957.8326,-85
3957.833583,-35
3957.834584,-15
3957.835587,-24
3957.836565,-35
3957.837565,-47
3957.838585,-51
3957.83961,-31
3957.840622,8
3957.84162,19
3957.842603,-14
3957.843587,-58
3957.844591,-83
3957.845607,-67
3957.846583,-23
3957.847603,1
3957.848593,20
3957.849593,82
3957.850604,171
3957.851589,264
3957.852609,337
3957.853575,356
3957.854574,333
3957.855594,286
3957.85663,272
3957.857614,292
3957.858618,317
3957.85959,351
3957.860588,419
3957.861596,461
3957.862589,444
3957.863593,410
3957.864572,374
3957.865567,358
3957.866576,366
3957.867589,369
3957.868594,339
3957.869607,286
3957.870567,247
3957.871562,206
3957.872587,110
3957.873652,-3
3957.874585,-98
3957.875591,-190
3957.876611,-249
3957.87759,-281
3957.8786,-337
3957.879599,-410
3957.880569,-439
3957.881605,-417
3957.882584,-401
3957.883583,-404
3957.884598,-406
3957.885578,-391
3957.886597,-358
3957.887551,-329
3957.888559,-322
3957.889589,-294
3957.8906,-252
3957.89161,-225
3957.892628,-176
3957.89364,-157
3957.894616,-211
3957.895596,-272
3957.896603,-278
3957.89759,-259
3957.898624,-243
3957.899589,-247
3957.900612,-244
3957.901589,-216
3957.9026,-161
3957.903608,-107
3957.904601,-95
3957.905583,-93
3957.906579,-94
3957.907586,-140
3957.908788,-221
3957.909803,-290
3957.910799,-329
3957.911814,-314
3957.91277,-281
3957.91379,-282
3957.914834,-280
3957.915799,-230
3957.916784,-154
3957.917789,-120
3957.918807,-120
3957.919791,-132
3957.920793,-137
3957.92178,-165
3957.922781,-186
3957.923783,-192
3957.924772,-211
3957.92578,-229
3957.926818,-193
3957.927774,-137
3957.928791,-123
3957.929761,-154
3957.930764,-210
3957.931778,-253
3957.932752,-263
3957.933759,-187
3957.934783,-71
3957.935746,1
3957.93676,10
3957.937745,-53
3957.938728,-164
3957.939734,-283
3957.940733,-355
3957.941741,-365
3957.942726,-346
3957.943727,-297
3957.944713,-216
3957.945714,-130
3957.946708,-70
3957.947714,-63
3957.948712,-122
3957.949752,-163
3957.950698,-112
3957.951703,-84
3957.952805,-81
3957.953711,-69
3957.954717,-61
3957.955743,-73
3957.956679,-79
3957.95772,-69
3957.958688,-58
3957.959749,-50
3957.96072,-64
3957.961701,-77
3957.962728,-81
3957.96382,-112
3957.964685,-146
3957.965688,-157
3957.966719,-141
3957.967705,-98
3957.968679,-43
3957.969695,6
3957.970727,-12
3957.971675,-48
3957.972676,-74
3957.973685,-106
3957.974777,-141
3957.975677,-132
3957.976684,-114
3957.977685,-149
3957.978683,-182
3957.979678,-203
3957.98067,-216
3957.981672,-207
3957.982667,-195
3957.984134,-149
3957.985288,-70
3957.985688,5
3957.986653,39
3957.987707,51
3957.98871,47
3957.989692,34
3957.99066,13
3957.991666,-50
3957.992652,-106
3957.993661,-154
3957.994664,-189
3957.995647,-201
3957.996643,-184
3957.997652,-149
3957.998965,-123
3957.999623,-108
3958.000644,-100
3958.001655,-70
3958.002624,-57
3958.00365,-75
3958.004646,-98
3958.005632,-124
3958.006638,-90
3958.007678,1
3958.008628,77
3958.009638,117
3958.010647,90
3958.011625,13
3958.012624,-54
3958.013618,-91
3958.014608,-120
3958.015607,-142
3958.01664,-113
3958.017591,-72
3958.018588,-57
3958.019616,-41
3958.020603,-30
3958.021588,-54
3958.022598,-77
3958.023582,-81
3958.024618,-88
3958.0256,-100
3958.026587,-100
3958.027568,-104
3958.028584,-118
3958.029577,-118
3958.03058,-120
3958.032049,-82
3958.033099,-38
3958.033637,11
3958.034607,59
3958.035617,82
3958.036616,80
3958.037597,64
3958.038604,37
3958.039589,14
3958.040607,3
3958.04158,-14
3958.042583,-50
3958.043594,-76
3958.0446,-56
3958.045553,-12
3958.046573,8
3958.047566,7
3958.048602,-11
3958.049613,19
3958.050612,85
3958.051602,131
3958.05263,173
3958.053627,212
3958.054601,226
3958.055598,209
3958.056575,156
3958.057628,79
3958.058598,27
3958.059596,4
3958.060587,-67
3958.061584,-164
3958.062594,-206
3958.063583,-127
3958.064604,3
3958.065613,100
3958.06662,174
3958.067599,223
3958.068611,244
3958.069576,240
3958.070606,192
3958.071641,139
3958.072598,126
3958.0736,159
3958.074588,201
3958.075621,193
3958.076605,138
3958.077588,71
3958.078591,47
3958.079584,65
3958.080592,74
3958.081598,38
3958.082606,30
3958.0836,68
3958.084601,135
3958.085603,204
3958.086616,244
3958.08759,234
3958.088587,185
3958.089607,86
3958.090622,24
3958.091603,-25
3958.092594,-99
3958.093618,-154
3958.094622,-167
3958.095614,-175
3958.096579,-166
3958.097587,-128
3958.098614,-56
3958.099622,61
3958.100601,161
3958.101595,208
3958.102625,229
3958.103584,233
3958.104607,220
3958.105604,183
3958.106592,123
3958.10756,48
3958.1086,-43
3958.109578,-130
3958.110584,-205
3958.111593,-241
3958.112609,-184
3958.113587,-87
3958.114584,10
3958.115588,45
3958.116598,34
3958.11761,17
3958.118603,26
3958.119577,70
3958.120611,102
3958.121583,83
3958.122628,50
3958.12357,-3
3958.12457,-104
3958.12558,-200
3958.12659,-246
3958.127595,-242
3958.128603,-190
3958.129588,-134
3958.130563,-103
3958.131568,-99
3958.132603,-87
3958.133652,-61
3958.134587,-31
3958.135578,-3
3958.136591,-8
3958.137588,-66
3958.138604,-152
3958.13956,-212
3958.14058,-246
3958.141583,-240
3958.142588,-208
3958.143589,-211
3958.144595,-241
3958.145577,-254
3958.146589,-253
3958.147577,-239
3958.148574,-219
3958.149596,-198
3958.150607,-147
3958.151597,-81
3958.152592,-46
3958.153603,-56
3958.154599,-108
3958.155665,-173
3958.156587,-237
3958.157598,-281
3958.158581,-322
3958.159591,-355
3958.16058,-396
3958.161579,-397
3958.162575,-358
3958.163576,-342
3958.16459,-339
3958.165583,-323
3958.166585,-323
3958.167619,-299
3958.168605,-238
3958.169609,-141
3958.17059,-80
3958.171588,-102
3958.172594,-150
3958.173608,-176
3958.174603,-233
3958.175591,-306
3958.176573,-332
3958.177584,-291
3958.178594,-242
3958.179551,-235
3958.180603,-249
3958.181589,-264
3958.182571,-282
3958.183559,-270
3958.184594,-231
3958.185586,-169
3958.186589,-112
3958.187589,-112
3958.188594,-167
3958.189656,-214
3958.190627,-247
3958.191588,-248
3958.192613,-233
3958.193575,-246
3958.194607,-272
3958.195568,-257
3958.196552,-200
3958.197566,-163
3958.198576,-160
3958.19956,-185
3958.200592,-190
3958.201615,-181
3958.202603,-169
3958.20359,-161
3958.204569,-193
3958.205612,-278
3958.206578,-392
3958.207602,-460
3958.208607,-455
3958.209581,-435
3958.210576,-398
3958.21157,-328
3958.212571,-232
3958.213578,-158
3958.214579,-126
3958.215587,-122
3958.216579,-120
3958.217581,-93
3958.218585,-23
3958.219576,42
3958.220594,13
3958.221602,-95
3958.222581,-209
3958.223582,-271
3958.22459,-298
3958.225573,-330
3958.226577,-359
3958.227575,-380
3958.228567,-390
3958.229561,-364
3958.230565,-312
3958.231575,-267
3958.23256,-230
3958.233567,-218
3958.234592,-214
3958.235585,-192
3958.236569,-189
3958.23759,-219
3958.238562,-235
3958.239583,-258
3958.240566,-270
3958.241563,-284
3958.242569,-312
3958.243577,-322
3958.244571,-346
3958.245559,-376
3958.246596,-376
3958.247556,-356
3958.248564,-306
3958.249561,-231
3958.250573,-180
3958.251602,-169
3958.252652,-184
3958.253589,-194
3958.254571,-193
3958.255567,-196
3958.256569,-207
3958.257573,-223
3958.258579,-234
3958.259572,-222
3958.260572,-231
3958.261556,-244
3958.262558,-235
3958.263563,-229
3958.26456,-224
3958.265556,-225
3958.266588,-214
3958.267592,-214
3958.268576,-180
3958.269589,-115
3958.270613,-86
3958.271583,-85
3958.272569,-84
3958.273641,-86
3958.274574,-114
3958.275583,-141
3958.276577,-201
3958.277581,-265
3958.278566,-270
3958.279559,-245
3958.280577,-248
3958.281563,-278
3958.282568,-278
3958.283572,-252
3958.284569,-213
3958.285576,-168
3958.286586,-140
3958.287592,-116
3958.288595,-96
3958.289571,-68
3958.290583,-38
3958.291577,-46
3958.292548,-107
3958.293576,-228
3958.294577,-341
3958.295567,-388
3958.296576,-404
3958.297567,-401
3958.29858,-373
3958.299555,-292
3958.300578,-195
3958.301541,-98
3958.302555,-2
3958.303597,33
3958.304581,10
3958.305594,-47
3958.306583,-99
3958.307591,-122
3958.308589,-144
3958.310236,-183
3958.310566,-201
3958.311565,-186
3958.312575,-156
3958.313556,-143
3958.314587,-165
3958.315553,-177
3958.316576,-186
3958.317569,-221
3958.318565,-238
3958.319563,-225
3958.320587,-220
3958.321591,-222
3958.322599,-199
3958.323575,-208
3958.324584,-248
3958.325576,-275
3958.326558,-294
3958.327571,-285
3958.328549,-282
3958.329564,-270
3958.330544,-232
3958.331547,-181
3958.332566,-114
3958.333603,-68
3958.334553,-66
3958.335574,-95
3958.336574,-100
3958.337583,-114
3958.338582,-147
3958.339587,-192
3958.34055,-240
3958.341598,-278
3958.342562,-311
3958.343569,-326
3958.344584,-341
3958.345547,-348
3958.346568,-306
3958.347564,-261
3958.348535,-224
3958.349562,-187
3958.350549,-157
3958.351543,-125
3958.352561,-64
3958.353563,-7
3958.354582,3
3958.355564,-45
3958.356571,-77
3958.357578,-62
3958.358591,-61
3958.359559,-122
3958.360555,-177
3958.36157,-210
3958.362558,-251
3958.363553,-300
3958.364548,-291
3958.365551,-211
3958.366543,-150
3958.367558,-166
3958.368572,-202
3958.369557,-195
3958.370584,-165
3958.371558,-148
3958.372583,-163
3958.373574,-190
3958.374592,-191
3958.375564,-175
3958.376572,-198
3958.377569,-243
3958.378581,-287
3958.379563,-327
3958.380559,-357
3958.381566,-327
3958.382572,-278
3958.383664,-211
3958.384574,-110
3958.385561,-18
3958.386573,17
3958.387552,34
3958.388598,38
3958.38959,14
3958.390577,-38
3958.391578,-107
3958.392644,-181
3958.393572,-258
3958.394576,-316
3958.395571,-337
3958.396537,-310
3958.397563,-253
3958.398557,-212
3958.399553,-177
3958.400556,-117
3958.401567,-40
3958.402544,15
3958.403557,6
3958.404567,-61
3958.405579,-133
3958.406581,-178
3958.407583,-208
3958.408568,-230
3958.409567,-215
3958.410557,-178
3958.411562,-139
3958.412566,-101
3958.413567,-85
3958.414572,-98
3958.415571,-113
3958.416553,-100
3958.417559,-87
3958.41856,-59
3958.41954,-32
3958.420553,-44
3958.421544,-94
3958.422579,-147
3958.423581,-173
3958.42455,-160
3958.425545,-135
3958.426559,-137
3958.427561,-185
3958.428561,-238
3958.429565,-233
3958.430563,-193
3958.431625,-152
3958.432555,-123
3958.433541,-126
3958.434558,-147
3958.43554,-155
3958.43657,-148
3958.437573,-152
3958.438556,-166
3958.439556,-168
3958.440576,-138
3958.441551,-96
3958.44256,-94
3958.443575,-133
3958.444539,-185
3958.445555,-230
3958.446542,-248
3958.447551,-231
3958.448549,-218
3958.449561,-183
3958.450562,-148
3958.451547,-112
3958.452552,-34
3958.453598,6
3958.454545,-6
3958.455539,-62
3958.456571,-131
3958.457569,-203
3958.458557,-281
3958.459562,-317
3958.46056,-289
3958.461592,-247
3958.462568,-197
3958.463552,-150
3958.46456,-127
3958.465544,-125
3958.466556,-126
3958.467561,-123
3958.468567,-112
3958.469536,-99
3958.470541,-91
3958.471541,-69
3958.472539,-62
3958.47355,-66
3958.474584,-103
3958.475561,-147
3958.476573,-192
3958.477586,-251
3958.478602,-274
3958.479558,-237
3958.480543,-204
3958.481537,-197
3958.482571,-181
3958.483556,-146
3958.484545,-100
3958.48554,-28
3958.48655,33
3958.487567,42
3958.488526,-2
3958.489526,-67
3958.490568,-125
3958.491569,-161
3958.492542,-166
3958.493558,-176
3958.494546,-218
3958.495555,-279
3958.496537,-351
3958.497542,-391
3958.498578,-361
3958.499573,-317
3958.500545,-281
3958.501542,-235
3958.502536,-182
3958.503537,-120
3958.504538,-112
3958.505535,-161
3958.506533,-171
3958.507562,-167
3958.508545,-171
3958.509547,-197
3958.510556,-232
3958.511561,-245
3958.512546,-281
3958.513555,-294
3958.514541,-269
3958.515533,-241
3958.516549,-187
3958.517554,-130
3958.518547,-78
3958.519541,-47
3958.520554,-45
3958.521543,-52
3958.522534,-61
3958.523513,-69
3958.524553,-105
3958.52556,-178
3958.526568,-237
3958.527564,-267
3958.528566,-247
3958.529543,-204
3958.53054,-157
3958.531578,-97
3958.532578,-48
3958.533577,16
3958.53457,92
3958.535546,156
3958.536567,195
3958.537536,215
3958.538527,211
3958.539548,196
3958.540537,170
3958.541565,142
3958.542561,110
3958.543561,76
3958.544538,59
3958.545545,75
3958.546538,157
3958.54753,235
3958.54855,289
3958.549551,359
3958.550562,451
3958.551556,548
3958.552534,635
3958.553536,694
3958.554515,695
3958.555515,638
3958.55652,560
3958.557548,462
3958.558564,339
3958.559555,225
3958.560557,156
3958.561566,128
3958.562546,118
3958.563539,141
3958.56454,139
3958.565539,68
3958.56655,-22
3958.567547,-72
3958.568543,-90
3958.569541,-102
3958.570533,-137
3958.57156,-190
3958.57254,-233
3958.573583,-229
3958.574522,-204
3958.575561,-214
3958.576546,-284
3958.577556,-363
3958.578539,-376
3958.579541,-338
3958.580554,-304
3958.581569,-294
3958.582558,-271
3958.583557,-236
3958.584543,-221
3958.585538,-211
3958.586552,-208
3958.587521,-217
3958.588565,-251
3958.589561,-254
3958.59056,-224
3958.591567,-215
3958.59257,-223
3958.59354,-251
3958.594548,-281
3958.59553,-269
3958.596539,-236
3958.597535,-226
3958.598523,-208
3958.59976,-172
3958.600741,-129
3958.601766,-86
3958.602762,-58
3958.603849,-59
3958.604783,-93
3958.605742,-113
3958.606735,-127
3958.607754,-139
3958.60876,-170
3958.609739,-219
3958.610713,-245
3958.611732,-240
3958.612695,-222
3958.613712,-222
3958.614763,-215
3958.615712,-168
3958.616725,-108
3958.617733,-77
3958.618721,-78
3958.619732,-89
3958.620713,-112
3958.621702,-148
3958.622736,-141
3958.623695,-110
3958.624721,-99
3958.6257,-107
3958.626703,-137
3958.627699,-194
3958.628711,-221
3958.629695,-196
3958.630885,-143
3958.632331,-66
3958.632696,13
3958.633694,43
3958.634667,42
3958.635686,39
3958.636666,48
3958.637705,26
3958.638707,-26
3958.639695,-45
3958.640695,-36
3958.641658,-39
3958.642665,-58
3958.643672,-112
3958.644659,-194
3958.645662,-246
3958.646692,-241
3958.647638,-176
3958.648651,-93
3958.649652,-5
3958.650648,48
3958.651647,55
3958.652647,67
3958.653651,59
3958.654649,11
3958.655654,-19
3958.656635,-29
3958.657641,-49
3958.658646,-70
3958.659632,-84
3958.660654,-124
3958.661648,-170
3958.662622,-176
3958.663637,-169
3958.664618,-157
3958.66562,-116
3958.666622,-53
3958.667605,-7
3958.668663,35
3958.669644,54
3958.67061,59
3958.671615,57
3958.672625,34
3958.673617,15
3958.67457,9
3958.675582,2
3958.676682,-22
3958.67791,-75
3958.678927,-126
3958.679583,-159
3958.680597,-175
3958.68167,-176
3958.6826,-163
3958.683567,-134
3958.684575,-68
3958.685589,-3
3958.686583,31
3958.687584,33
3958.688603,20
3958.689594,-13
3958.690598,-70
3958.691582,-141
3958.69257,-203
3958.693904,-235
3958.694914,-197
3958.695565,-135
3958.696573,-91
3958.697577,-82
3958.698557,-75
3958.69956,-77
3958.700594,-98
3958.701558,-56
3958.702591,23
3958.703536,66
3958.704552,85
3958.705548,115
3958.706554,189
3958.707576,244
3958.708557,231
3958.709542,131
3958.710537,-18
3958.711541,-108
3958.712548,-119
3958.71357,-93
3958.714535,-47
3958.715545,-15
3958.716553,6
3958.717529,19
3958.718532,40
3958.719628,53
3958.720565,34
3958.721575,-9
3958.722557,-49
3958.723567,-71
3958.72454,-76
3958.72555,-65
3958.726533,-34
3958.727546,-3
3958.728542,27
3958.729545,34
3958.730549,16
3958.731559,17
3958.732541,37
3958.733524,41
3958.734519,45
3958.73555,76
3958.736534,96
3958.737522,92
3958.738581,91
3958.739564,111
3958.740562,116
3958.741547,88
3958.742541,55
3958.743549,43
3958.744535,49
3958.745533,36
3958.746538,-8
3958.747531,-42
3958.74853,-15
3958.749548,43
3958.750544,99
3958.751552,154
3958.752549,190
3958.753526,216
3958.75454,221
3958.755566,195
3958.756612,178
3958.757564,172
3958.758581,161
3958.759542,149
3958.760546,124
3958.761538,72
3958.762546,19
3958.763558,4
3958.764545,28
3958.765541,66
3958.766529,125
3958.767545,169
3958.768536,173
3958.769527,156
3958.770535,120
3958.771535,111
3958.77256,175
3958.773526,245
3958.774547,234
3958.77554,183
3958.776543,120
3958.777544,50
3958.778535,-3
3958.779552,24
3958.780527,87
3958.781544,122
3958.782551,179
3958.783556,257
3958.784545,277
3958.785531,256
3958.786549,229
3958.787562,208
3958.788565,177
3958.789551,143
3958.790552,134
3958.791547,135
3958.792558,114
3958.793576,96
3958.794589,76
3958.795589,41
3958.796532,21
3958.797547,34
3958.798549,66
3958.799547,97
3958.800586,124
3958.801555,140
3958.802529,147
3958.803537,127
3958.804534,65
3958.805547,25
3958.806572,5
3958.807534,-20
3958.808545,-50
3958.809539,-51
3958.810546,-32
3958.811542,-25
3958.812548,-21
3958.81352,-27
3958.814533,-37
3958.815531,-23
3958.816546,-9
3958.817535,-31
3958.818535,-56
3958.819535,-75
3958.820532,-93
3958.821531,-89
3958.822556,-54
3958.823537,-21
3958.824559,7
3958.825544,-4
3958.826551,-61
3958.827549,-139
3958.828547,-200
3958.829551,-197
3958.830532,-176
3958.831554,-178
3958.832556,-125
3958.83352,-50
3958.834515,-10
3958.835554,12
3958.836529,18
3958.83753,-20
3958.83852,-75
3958.839553,-98
3958.840572,-113
3958.841545,-167
3958.842555,-221
3958.843529,-252
3958.84454,-265
3958.845553,-267
3958.84654,-239
3958.847538,-205
3958.84853,-187
3958.849534,-166
3958.850553,-156
3958.851521,-118
3958.852546,-106
3958.853525,-146
3958.854533,-192
3958.855537,-212
3958.856553,-174
3958.857549,-118
3958.85855,-105
3958.859545,-148
3958.860544,-191
3958.861545,-213
3958.862546,-233
3958.863513,-248
3958.864522,-251
3958.865541,-239
3958.866535,-211
3958.867536,-157
3958.868534,-103
3958.869555,-77
3958.870535,-72
3958.871529,-84
3958.872551,-92
3958.873567,-79
3958.874548,-90
3958.875546,-137
3958.876534,-183
3958.877557,-206
3958.878554,-188
3958.879538,-149
3958.880542,-123
3958.881608,-123
3958.882522,-129
3958.883576,-133
3958.884511,-130
3958.885531,-89
3958.886553,-59
3958.887535,-98
3958.888531,-162
3958.889527,-211
3958.89055,-238
3958.891563,-258
3958.89256,-264
3958.893569,-247
3958.894543,-237
3958.895539,-235
3958.896554,-224
3958.897556,-212
3958.898522,-185
3958.899552,-126
3958.900531,-52
3958.901563,-3
3958.902532,18
3958.903522,1
3958.904514,-55
3958.905532,-132
3958.906517,-165
3958.907567,-174
3958.908542,-196
3958.909535,-246
3958.910576,-296
3958.911548,-297
3958.912533,-274
3958.913529,-239
3958.914536,-172
3958.91552,-108
3958.91652,-60
3958.917513,-36
3958.918537,-16
3958.919524,-22
3958.920512,-41
3958.921507,-48
3958.922525,-64
3958.923567,-85
3958.924543,-131
3958.925551,-175
3958.926535,-208
3958.92754,-250
3958.928538,-264
3958.929561,-287
3958.93052,-306
3958.93154,-313
3958.932532,-278
3958.933524,-179
3958.934518,-73
3958.93555,30
3958.936567,111
3958.937504,111
3958.938511,36
3958.939507,-22
3958.940527,-81
3958.941541,-157
3958.942587,-205
3958.943529,-222
3958.94454,-241
3958.945512,-245
3958.94652,-230
3958.947528,-204
3958.948516,-167
3958.94953,-121
3958.950531,-96
3958.951519,-67
3958.952503,-64
3958.95351,-78
3958.9545,-63
3958.955525,-28
3958.956522,-10
3958.957506,-33
3958.958528,-86
3958.959578,-152
3958.960582,-197
3958.961521,-201
3958.962555,-170
3958.963571,-133
3958.964531,-92
3958.965538,-74
3958.966535,-68
3958.967519,-49
3958.968537,-45
3958.969514,-68
3958.970516,-87
3958.971517,-95
3958.972527,-97
3958.973542,-94
3958.974525,-94
3958.975543,-101
3958.976559,-133
3958.977564,-204
3958.97855,-246
3958.979525,-217
3958.980533,-161
3958.981553,-131
3958.982538,-90
3958.983527,3
3958.984527,74
3958.985536,61
3958.986523,6
3958.987509,-47
3958.988543,-93
3958.989528,-126
3958.990579,-159
3958.991532,-213
3958.992528,-269
3958.993573,-318
3958.996429,-361
3958.996495,-365
3958.996554,-306
3958.997537,-203
3958.998533,-100
3958.999528,-30
3959.000501,9
3959.001532,16
3959.002501,1
3959.003517,-45
3959.004515,-93
3959.005523,-96
3959.006532,-94
3959.007508,-124
3959.008573,-137
3959.009587,-108
3959.010518,-122
3959.011536,-151
3959.012539,-131
3959.01353,-116
3959.014534,-112
3959.01551,-80
3959.016504,-43
3959.017534,-35
3959.01852,-72
3959.019524,-95
3959.020516,-121
3959.021523,-142
3959.022514,-105
3959.023506,-70
3959.024497,-112
3959.025471,-179
3959.026534,-210
3959.027529,-239
3959.02851,-265
3959.029511,-245
3959.030515,-206
3959.031526,-202
3959.032516,-192
3959.033533,-147
3959.034503,-86
3959.035539,-20
3959.036515,15
3959.037512,2
3959.038526,-12
3959.039522,-25
3959.040507,-43
3959.041535,-76
3959.042837,-108
3959.04415,-132
3959.044542,-163
3959.045552,-179
3959.046533,-161
3959.047536,-121
3959.048553,-79
3959.04954,-22
3959.050532,32
3959.051544,66
3959.052518,107
3959.053526,131
3959.054507,103
3959.055523,53
3959.056538,-4
3959.057545,-66
3959.058503,-135
3959.059503,-206
3959.060563,-278
3959.061521,-326
3959.062548,-331
3959.063541,-297
3959.064529,-221
3959.065551,-125
3959.06651,-37
3959.067542,16
3959.068505,21
3959.069527,1
3959.070515,-23
3959.071516,-79
3959.072508,-136
3959.073507,-158
3959.074527,-137
3959.07553,-114
3959.076534,-131
3959.077535,-166
3959.078545,-195
3959.079546,-208
3959.080529,-190
3959.081533,-157
3959.082514,-121
3959.083508,-88
3959.084525,-88
3959.085511,-78
3959.086515,-35
3959.087545,15
3959.088524,35
3959.089519,13
3959.090521,-33
3959.091532,-77
3959.092506,-98
3959.093495,-95
3959.094543,-87
3959.09552,-76
3959.096521,-72
3959.097529,-72
3959.098526,-61
3959.099523,-23
3959.100536,30
3959.101566,65
3959.102515,55
3959.10352,14
3959.1045,13
3959.105533,26
3959.106539,15
3959.107551,-16
3959.108509,-35
3959.109515,-72
3959.110516,-126
3959.11153,-132
3959.112524,-105
3959.113519,-77
3959.114517,-53
3959.115525,-33
3959.116524,-16
3959.117518,3
3959.118523,49
3959.119525,62
3959.120523,34
3959.12152,-15
3959.122526,-56
3959.123521,-69
3959.12451,-69
3959.125541,-50
3959.12652,-52
3959.127547,-117
3959.128531,-182
3959.129537,-177
3959.130534,-120
3959.131514,-53
3959.13252,4
3959.133515,66
3959.134545,106
3959.135534,84
3959.136536,25
3959.137526,-27
3959.13853,-24
3959.139541,6
3959.140542,-2
3959.141515,-19
3959.142526,-40
3959.143516,-70
3959.144515,-114
3959.145568,-164
3959.146553,-180
3959.147534,-157
3959.148527,-103
3959.149537,-30
3959.150543,18
3959.151542,42
3959.152526,40
3959.153525,25
3959.154525,-6
3959.155528,-35
3959.156512,-47
3959.157514,-46
3959.158517,-53
3959.159511,-86
3959.160518,-119
3959.161511,-148
3959.162542,-157
3959.163533,-145
3959.164536,-123
3959.165595,-104
3959.166521,-90
3959.167539,-75
3959.168537,-42
3959.169525,18
3959.170551,44
3959.171535,38
3959.172513,24
3959.173528,8
3959.174521,-32
3959.175507,-76
3959.176524,-103
3959.177513,-135
3959.178503,-149
3959.17956,-135
3959.180536,-95
3959.181534,-49
3959.182517,4
3959.183516,71
3959.184516,112
3959.185521,121
3959.186528,95
3959.187538,58
3959.18852,28
3959.189535,3
3959.190531,-30
3959.19152,-75
3959.192511,-134
3959.193513,-183
3959.194508,-201
3959.195528,-191
3959.196554,-138
3959.197543,-99
3959.198538,-106
3959.199532,-100
3959.200541,-78
3959.201525,-34
3959.20256,14
3959.203559,34
3959.204532,46
3959.205563,62
3959.206576,72
3959.207522,53
3959.208522,12
3959.209536,-51
3959.210511,-118
3959.211503,-155
3959.212524,-139
3959.213535,-127
3959.214538,-127
3959.215548,-138
3959.216547,-109
3959.217596,-24
3959.218528,43
3959.219558,65
3959.220566,33
3959.221533,-26
3959.222524,-60
3959.223538,-82
3959.224606,-91
3959.225517,-79
3959.226503,-62
3959.227513,-58
3959.228498,-49
3959.229497,-30
3959.23054,-14
3959.23155,13
3959.23252,59
3959.23352,125
3959.234534,210
3959.235526,298
3959.236528,349
3959.23753,373
3959.238608,388
3959.239531,409
3959.240507,441
3959.241522,436
3959.242528,399
3959.243543,378
3959.244516,373
3959.2455,391
3959.246523,453
3959.247538,547
3959.248547,631
3959.249567,676
3959.250553,670
3959.251528,647
3959.25254,613
3959.253519,582
3959.254526,564
3959.255519,557
3959.256545,520
3959.257503,446
3959.258519,351
3959.259516,250
3959.260556,178
3959.26152,99
3959.262506,25
3959.263528,-13
3959.264525,-31
3959.265518,-41
3959.266511,-51
3959.26752,-70
3959.268555,-80
3959.269523,-81
3959.270517,-104
3959.271514,-122
3959.272552,-107
3959.27354,-89
3959.274533,-94
3959.275518,-114
3959.276538,-132
3959.277513,-160
3959.278511,-175
3959.279499,-161
3959.280529,-124
3959.28156,-88
3959.282533,-53
3959.283569,-33
3959.284532,-29
3959.285526,-31
3959.286512,-22
3959.287536,5
3959.288514,12
3959.289518,-12
3959.290519,-39
3959.291507,-49
3959.292506,-40
3959.29351,-56
3959.294478,-93
3959.295492,-110
3959.296706,-107
3959.297717,-100
3959.298719,-56
3959.299731,27
3959.300723,66
3959.301723,54
3959.302744,50
3959.303692,56
3959.304714,62
3959.305697,46
3959.306688,6
3959.307687,-38
3959.308722,-77
3959.309732,-100
3959.310691,-92
3959.311692,-91
3959.312726,-104
3959.313687,-90
3959.31468,-46
3959.315688,13
3959.316675,65
3959.317682,68
3959.318683,32
3959.31969,46
3959.32071,85
3959.321686,100
3959.322678,96
3959.323668,73
3959.324674,18
3959.325667,-55
3959.326665,-92
3959.327654,-90
3959.328665,-85
3959.329652,-110
3959.330652,-134
3959.331647,-99
3959.332648,-22
3959.333657,62
3959.334693,131
3959.335632,195
3959.33664,233
3959.337637,222
3959.338612,171
3959.339632,111
3959.340688,67
3959.341653,28
3959.342632,-24
3959.343633,-70
3959.344642,-94
3959.345614,-121
3959.346638,-107
3959.347623,-61
3959.34861,5
3959.349628,82
3959.350648,110
3959.351621,89
3959.352634,91
3959.353634,89
3959.354617,77
3959.355624,68
3959.356663,47
3959.357676,33
3959.358589,25
3959.359591,8
3959.360598,-19
3959.361603,-40
3959.362613,-19
3959.363589,28
3959.364598,46
3959.365583,79
3959.366597,132
3959.367573,170
3959.36862,171
3959.369589,152
3959.370619,145
3959.371568,109
3959.372567,66
3959.37358,63
3959.374567,70
3959.375582,59
3959.37657,38
3959.377576,-9
3959.378556,-58
3959.379561,-68
3959.380559,-33
3959.381549,-10
3959.382547,8
3959.383563,40
3959.384569,83
3959.385558,120
3959.386563,127
3959.387537,133
3959.38856,147
3959.38955,153
3959.390606,156
3959.391556,153
3959.392539,158
3959.393538,149
3959.39454,132
3959.395525,116
3959.396544,111
3959.397519,98
3959.398523,78
3959.399533,87
3959.400511,104
3959.401519,123
3959.40253,154
3959.403534,162
3959.404544,131
3959.405523,78
3959.406498,34
3959.407502,8
3959.408504,-15
3959.409519,-24
3959.410508,-28
3959.411493,28
3959.412524,116
3959.413528,151
3959.414474,146
3959.415482,156
3959.416498,197
3959.41751,233
3959.418506,248
3959.419513,258
3959.420522,247
3959.421527,208
3959.422525,153
3959.423517,129
3959.42451,108
3959.425498,77
3959.426492,52
3959.427491,49
3959.428503,77
3959.429492,138
3959.430478,207
3959.431516,243
3959.432507,267
3959.433482,292
3959.434509,321
3959.435556,350
3959.436551,377
3959.437523,390
3959.438529,388
3959.439527,353
3959.440529,310
3959.44152,265
3959.4425,203
3959.443521,118
3959.444499,41
3959.445507,18
3959.446511,43
3959.447504,82
3959.448494,116
3959.449503,159
3959.450503,195
3959.451523,236
3959.452527,325
3959.453521,408
3959.454526,403
3959.455528,362
3959.456522,322
3959.457557,271
3959.458511,221
3959.45951,191
3959.46049,170
3959.461503,173
3959.462486,204
3959.463511,233
3959.464481,261
3959.465475,294
3959.466483,324
3959.467497,347
3959.468514,348
3959.469592,348
3959.470531,351
3959.471545,352
3959.472521,362
3959.47351,338
3959.474497,270
3959.475519,230
3959.476495,196
3959.477515,104
3959.478506,57
3959.479498,133
3959.4805,253
3959.481501,355
3959.482478,405
3959.483488,410
3959.484513,398
3959.485522,405
3959.486526,401
3959.487528,378
3959.488524,332
3959.489528,276
3959.490513,239
3959.491497,217
3959.492509,178
3959.493494,117
3959.494499,48
3959.49548,34
3959.496492,50
3959.497487,64
3959.498476,112
3959.499506,204
3959.500483,265
3959.501481,264
3959.502523,226
3959.503508,200
3959.504541,160
3959.505515,133
3959.506485,119
3959.507524,90
3959.508511,61
3959.50951,35
3959.510499,10
3959.511489,16
3959.512481,18
3959.513502,12
3959.514482,22
3959.515458,59
3959.516499,102
3959.517482,137
3959.518514,183
3959.51953,228
3959.520502,231
3959.521503,187
3959.522515,125
3959.523519,54
3959.524518,-17
3959.525514,-74
3959.526492,-106
3959.527485,-97
3959.528476,-61
3959.529479,-13
3959.530476,26
3959.531494,21
3959.532499,19
3959.533475,34
3959.534475,60
3959.53549,103
3959.536498,133
3959.537497,133
3959.538509,129
3959.539525,103
3959.540507,49
3959.541506,-23
3959.542502,-71
3959.543566,-114
3959.544478,-148
3959.545482,-136
3959.546489,-80
3959.547478,-34
3959.548455,-22
3959.54948,-2
3959.550474,14
3959.55148,38
3959.552556,77
3959.553506,90
3959.554492,64
3959.555497,19
3959.556509,1
3959.557498,2
3959.558554,-17
3959.559502,-64
3959.560495,-108
3959.561471,-146
3959.562473,-146
3959.563488,-106
3959.564495,-50
3959.565487,12
3959.566473,43
3959.567492,33
3959.568471,9
3959.569486,-7
3959.570504,-24
3959.571508,-41
3959.572488,-47
3959.573472,-45
3959.574474,-40
3959.575469,-45
3959.576482,-44
3959.577482,-47
3959.578459,-34
3959.57952,-41
3959.580481,-76
3959.581483,-79
3959.58248,-38
3959.583476,4
3959.58447,45
3959.585467,93
3959.586479,114
3959.587495,95
3959.58848,48
3959.589468,10
3959.590459,-9
3959.59147,-10
3959.592535,-25
3959.593473,-68
3959.594484,-116
3959.595483,-145
3959.596452,-136
3959.597465,-103
3959.59847,-49
3959.599468,-12
3959.600457,-4
3959.601492,37
3959.602506,86
3959.603587,90
3959.604477,45
3959.605525,-17
3959.606463,-53
3959.607459,-75
3959.608467,-74
3959.609475,-41
3959.610469,-20
3959.61147,-25
3959.612473,-33
3959.61352,-31
3959.614552,-29
3959.615584,-30
3959.616467,23
3959.617482,118
3959.618455,184
3959.619465,198
3959.620447,184
3959.621468,154
3959.622501,98
3959.62346,28
3959.624463,-46
3959.625485,-79
3959.626569,-85
3959.627479,-80
3959.628473,-94
3959.629517,-107
3959.630474,-92
3959.631489,-37
3959.632471,42
3959.633516,136
3959.634476,236
3959.635476,295
3959.636474,269
3959.637512,163
3959.638467,61
3959.639497,40
3959.640465,36
3959.641462,-7
3959.642489,-76
3959.643504,-153
3959.644457,-193
3959.645471,-179
3959.647119,-133
3959.648317,-84
3959.648568,-33
3959.649456,39
3959.650443,69
3959.651478,68
3959.652456,78
3959.653446,103
3959.654456,128
3959.655505,142
3959.656481,133
3959.657555,89
3959.658504,11
3959.659474,-65
3959.660531,-111
3959.661467,-138
3959.662466,-136
3959.663473,-111
3959.664459,-64
3959.665438,18
3959.666473,78
3959.667489,128
3959.668454,161
3959.669454,167
3959.670465,177
3959.671428,166
3959.672465,138
3959.673465,94
3959.674483,45
3959.675455,-2
3959.676458,-45
3959.677472,-70
3959.678455,-85
3959.679457,-111
3959.680435,-116
3959.68142,-80
3959.682439,-6
3959.683462,61
3959.684435,93
3959.685446,112
3959.686424,121
3959.687412,105
3959.688444,68
3959.689501,50
3959.690464,40
3959.691504,24
3959.692463,11
3959.694353,-18
3959.694501,-58
3959.69547,-43
3959.696448,18
3959.697438,47
3959.698441,66
3959.69943,111
3959.700442,136
3959.701438,122
3959.70242,125
3959.703442,144
3959.704448,134
3959.705433,105
3959.706461,81
3959.707457,83
3959.708437,89
3959.709618,41
3959.710643,-23
3959.711456,-56
3959.712473,-48
3959.713461,-23
3959.714479,-7
3959.715425,-8
3959.716433,1
3959.717453,53
3959.718432,132
3959.719429,191
3959.72042,202
3959.721417,173
3959.722412,132
3959.72346,105
3959.724453,68
3959.725437,34
3959.726444,-5
3959.727455,-36
3959.728418,-58
3959.729438,-84
3959.730426,-59
3959.731427,2
3959.732429,25
3959.733417,53
3959.73443,110
3959.735413,159
3959.736445,156
3959.73743,152
3959.7384,158
3959.739426,143
3959.74047,98
3959.741437,36
3959.742436,-16
3959.743452,-69
3959.744428,-115
3959.745426,-116
3959.746438,-85
3959.747465,-67
3959.748428,-43
3959.749416,24
3959.750432,95
3959.751407,140
3959.752406,141
3959.75341,105
3959.754425,56
3959.755424,42
3959.756456,100
3959.75743,135
3959.758474,108
3959.759442,68
3959.760447,57
3959.761446,35
3959.762451,2
3959.763437,-27
3959.764444,-47
3959.765436,-21
3959.766422,62
3959.76743,126
3959.768437,132
3959.769394,111
3959.770431,56
3959.771442,-3
3959.772416,-13
3959.773431,30
3959.774434,60
3959.775435,23
3959.776408,-52
3959.777426,-101
3959.778427,-118
3959.779435,-117
3959.780419,-106
3959.781433,-45
3959.782419,17
3959.783418,33
3959.784442,77
3959.785427,138
3959.786424,158
3959.787423,123
3959.788421,82
3959.789409,92
3959.790403,118
3959.791417,112
3959.79243,71
3959.793414,31
3959.794424,-10
3959.795419,-47
3959.796423,-51
3959.797408,-39
3959.79843,2
3959.79939,72
3959.800404,145
3959.801411,178
3959.802416,182
3959.803419,192
3959.80442,167
3959.805386,135
3959.806445,134
3959.807391,159
3959.808433,154
3959.809432,111
3959.810415,57
3959.811422,20
3959.812411,17
3959.81341,71
3959.814419,175
3959.815424,249
3959.816408,242
3959.817401,213
3959.818407,207
3959.819417,224
3959.8204,229
3959.8214,226
3959.822474,215
3959.823419,165
3959.824393,102
3959.825433,68
3959.826407,67
3959.827418,70
3959.828415,73
3959.829417,60
3959.830425,46
3959.83146,30
3959.832429,12
3959.833409,20
3959.834413,65
3959.835424,129
3959.836418,189
3959.837401,191
3959.838407,114
3959.839395,34
3959.840393,13
3959.84141,40
3959.842418,46
3959.843439,49
3959.844411,67
3959.845413,81
3959.846406,75
3959.847405,59
3959.848399,76
3959.849404,134
3959.850435,193
3959.851426,223
3959.852417,234
3959.853421,220
3959.854419,186
3959.855425,158
3959.856414,140
3959.857397,103
3959.858422,85
3959.859475,69
3959.860423,21
3959.861437,-15
3959.862434,-34
3959.863428,-40
3959.864429,13
3959.86542,88
3959.866423,161
3959.867457,219
3959.86841,251
3959.869449,246
3959.870407,218
3959.871439,177
3959.872379,158
3959.873383,168
3959.874399,168
3959.875384,136
3959.876476,69
3959.877425,27
3959.878418,10
3959.879421,16
3959.880409,32
3959.881432,60
3959.882438,87
3959.883416,96
3959.884411,83
3959.8854,61
3959.886451,75
3959.887434,61
3959.8884,29
3959.889404,7
3959.890406,-11
3959.891399,-20
3959.892404,-48
3959.893418,-103
3959.894416,-140
3959.895411,-122
3959.896419,-52
3959.89751,13
3959.898464,75
3959.899411,165
3959.900398,245
3959.9014,271
3959.902453,245
3959.903412,208
3959.904403,172
3959.905384,173
3959.906397,188
3959.907379,144
3959.908395,114
3959.90947,103
3959.910411,74
3959.911396,28
3959.912415,-7
3959.913389,-32
3959.914424,-47
3959.915391,-21
3959.916392,36
3959.91739,109
3959.918398,159
3959.919399,179
3959.920402,173
3959.92137,144
3959.922375,125
3959.923388,119
3959.924381,106
3959.925433,71
3959.926412,-4
3959.927406,-75
3959.928441,-96
3959.929389,-82
3959.930391,-48
3959.931391,-7
3959.932415,66
3959.93341,158
3959.934399,199
3959.935387,209
3959.936403,222
3959.937392,211
3959.938411,168
3959.939384,138
3959.940376,124
3959.941382,120
3959.94237,116
3959.943355,108
3959.944427,146
3959.945404,209
3959.946392,238
3959.947384,251
3959.948385,271
3959.949399,273
3959.950404,278
3959.951381,293
3959.952395,320
3959.953385,358
3959.954384,384
3959.955387,365
3959.956384,333
3959.957383,320
3959.958358,312
3959.959359,315
3959.960383,347
3959.961421,393
3959.962386,443
3959.96339,492
3959.964429,548
3959.965395,618
3959.966402,698
3959.96739,751
3959.968394,779
3959.969383,807
3959.970356,817
3959.971385,798
3959.972362,788
3959.973368,741
3959.974361,654
3959.975364,584
3959.976388,523
3959.977337,484
3959.978408,451
3959.979415,430
3959.980393,398
3959.981391,329
3959.98238,256
3959.983386,227
3959.984377,236
3959.985374,252
3959.986406,214
3959.987413,161
3959.988389,111
3959.989399,35
3959.990389,-36
3959.991396,-55
3959.992372,-79
3959.993372,-99
3959.994411,-108
3959.995417,-124
3959.99638,-136
3959.997387,-146
3959.998395,-130
3959.999417,-60
3960.000379,16
3960.001386,57
3960.002374,59
3960.003376,39
3960.004443,11
3960.005395,-27
3960.006357,-23
3960.007344,15
3960.008378,61
3960.009725,99
3960.010658,111
3960.011371,85
3960.012374,78
3960.013391,97
3960.014388,113
3960.015396,146
3960.016391,189
3960.017384,220
3960.018588,236
3960.01958,216
3960.020602,143
3960.021593,49
3960.022617,1
3960.023576,14
3960.024619,42
3960.025567,32
3960.026573,-21
3960.02757,-66
3960.028554,-62
3960.029572,-4
3960.030571,69
3960.031539,111
3960.032562,130
3960.033548,156
3960.034549,219
3960.035559,273
3960.036552,283
3960.037524,246
3960.038551,188
3960.039571,166
3960.040541,180
3960.041535,191
3960.042572,192
3960.043533,184
3960.04453,178
3960.045524,158
3960.046518,118
3960.04753,73
3960.048523,37
3960.049527,48
3960.050499,120
3960.051542,215
3960.052589,273
3960.053506,277
3960.054513,249
3960.055577,178
3960.057267,118
3960.058594,58
3960.058675,1
3960.059508,-55
3960.060497,-94
3960.061498,-62
3960.062502,4
3960.063474,31
3960.06462,67
3960.065487,139
3960.066481,205
3960.067464,241
3960.068476,253
3960.069495,248
3960.070478,249
3960.071443,264
3960.07247,279
3960.073458,265
3960.074447,228
3960.075466,182
3960.076462,131
3960.077435,98
3960.078455,78
3960.079461,78
3960.08045,110
3960.081436,154
3960.082451,185
3960.08345,202
3960.084433,243
3960.085452,278
3960.086434,281
3960.087428,255
3960.088471,225
3960.089454,204
3960.090443,202
3960.091447,201
3960.092416,184
3960.093407,164
3960.094424,171
3960.095396,144
3960.096422,96
3960.097408,73
3960.098407,71
3960.099393,114
3960.100435,216
3960.10141,314
3960.102412,312
3960.103428,254
3960.104414,209
3960.105418,177
3960.106412,175
3960.107417,182
3960.108399,201
3960.109433,180
3960.110391,117
3960.111377,67
3960.112389,66
3960.113385,98
3960.114374,115
3960.115391,139
3960.11637,169
3960.117409,227
3960.118375,318
3960.119422,379
3960.120366,389
3960.121454,366
3960.122365,330
3960.123377,231
3960.12436,103
3960.125362,42
3960.126343,58
3960.127333,113
3960.12834,180
3960.129347,203
3960.130343,208
3960.131351,212
3960.132483,230
3960.133328,266
3960.134345,317
3960.135354,377
3960.136338,422
3960.13734,410
3960.138313,356
3960.13932,317
3960.14032,288
3960.141346,247
3960.142344,210
3960.143339,180
3960.144341,171
3960.145351,185
3960.146338,193
3960.147327,193
3960.148354,218
3960.149338,274
3960.150335,352
3960.15134,422
3960.152348,461
3960.153379,456
3960.154338,414
3960.155462,355
3960.156328,322
3960.157429,295
3960.158299,282
3960.159342,311
3960.160324,313
3960.16139,294
3960.162349,285
3960.163362,273
3960.164362,297
3960.165344,353
3960.166462,393
3960.167321,422
3960.16834,452
3960.169354,470
3960.170341,455
3960.171337,422
3960.172309,394
3960.173333,374
3960.174322,342
3960.175306,294
3960.176311,255
3960.177316,234
3960.178329,242
3960.179324,268
3960.180322,288
3960.181328,334
3960.182326,392
3960.183309,439
3960.184303,484
3960.185343,522
3960.186382,524
3960.187332,500
3960.1883,453
3960.189337,407
3960.19035,390
3960.191312,380
3960.19233,356
3960.193328,325
3960.194335,324
3960.195331,332
3960.196335,343
3960.197325,336
3960.198315,317
3960.199355,336
3960.200382,382
3960.201332,411
3960.202324,420
3960.203328,397
3960.204317,341
3960.20532,313
3960.206319,332
3960.207322,359
3960.208301,357
3960.209319,302
3960.210309,222
3960.211298,177
3960.212334,190
3960.213345,213
3960.214352,254
3960.215345,322
3960.216348,360
3960.217333,369
3960.218331,370
3960.219325,373
3960.220327,366
3960.221388,343
3960.222302,315
3960.22333,286
3960.224311,272
3960.225373,266
3960.226329,243
3960.227295,218
3960.228295,208
3960.229379,200
3960.230346,197
3960.231373,194
3960.232342,195
3960.233315,213
3960.234318,254
3960.235319,281
3960.236325,268
3960.237327,244
3960.238331,206
3960.239327,153
3960.240306,82
3960.241309,56
3960.24231,55
3960.243298,51
3960.244317,64
3960.245321,82
3960.24633,84
3960.247315,77
3960.248313,94
3960.24935,145
3960.250331,181
3960.251336,193
3960.252315,220
3960.253307,223
3960.254332,214
3960.255362,234
3960.256306,244
3960.257378,187
3960.258299,100
3960.259297,57
3960.260271,22
3960.261291,-19
3960.262293,-20
3960.263303,9
3960.264319,34
3960.26532,53
3960.26633,78
3960.267332,138
3960.268346,201
3960.269333,228
3960.270334,250
3960.271299,241
3960.27231,185
3960.273336,115
3960.274296,49
3960.275315,23
3960.276294,3
3960.277307,-21
3960.278281,-59
3960.279267,-74
3960.280362,-55
3960.281385,-14
3960.282317,55
3960.283305,103
3960.284303,120
3960.285302,108
3960.286306,105
3960.287319,111
3960.288311,97
3960.289364,83
3960.290304,50
3960.291288,21
3960.292299,-6
3960.293306,-40
3960.294285,-62
3960.295272,-17
3960.296285,76
3960.297309,172
3960.298303,222
3960.299306,221
3960.300307,200
3960.3013,189
3960.302322,176
3960.30332,154
3960.304304,122
3960.305335,83
3960.306303,58
3960.307307,26
3960.308306,-15
3960.309318,-34
3960.310301,-43
3960.311299,-37
3960.312284,-14
3960.313292,21
3960.314289,54
3960.315309,85
3960.316307,86
3960.31731,101
3960.31833,125
3960.319316,136
3960.320296,137
3960.321312,124
3960.3223,104
3960.323297,109
3960.324295,120
3960.32529,127
3960.326292,84
3960.327298,33
3960.328299,14
3960.32929,14
3960.330291,15
3960.331312,-6
3960.332305,11
3960.333314,65
3960.334278,128
3960.335311,178
3960.336333,198
3960.337309,160
3960.338328,108
3960.339298,103
3960.340273,134
3960.3413,160
3960.342284,148
3960.343279,118
3960.344284,89
3960.345293,37
3960.346288,-8
3960.34731,-26
3960.348309,-27
3960.349295,-3
3960.350323,51
3960.351332,109
3960.352276,130
3960.353324,133
3960.354299,157
3960.355304,186
3960.35627,166
3960.357295,86
3960.358288,5
3960.359276,-40
3960.360276,-54
3960.36133,-50
3960.362281,-42
3960.363279,-27
3960.364318,25
3960.3653,122
3960.366317,211
3960.367343,263
3960.368292,304
3960.369317,314
3960.370299,307
3960.371285,291
3960.3723,254
3960.373294,205
3960.374281,149
3960.375272,84
3960.376263,29
3960.377269,4
3960.378259,-24
3960.379262,-37
3960.380262,-36
3960.381265,-25
3960.382281,30
3960.383283,101
3960.384259,172
3960.385301,209
3960.386304,198
3960.387298,160
3960.388295,110
3960.389282,93
3960.390306,95
3960.391271,79
3960.392282,50
3960.39327,21
3960.39427,-6
3960.395255,6
3960.396249,43
3960.397257,81
3960.398244,124
3960.399286,172
3960.400324,206
3960.401306,224
3960.402275,219
3960.403268,179
3960.404281,118
3960.405284,95
3960.406283,108
3960.407355,140
3960.408274,165
3960.409278,145
3960.410259,70
3960.411267,-22
3960.412269,-56
3960.413302,-18
3960.414295,65
3960.415253,163
3960.416279,222
3960.417288,210
3960.418285,210
3960.419295,229
3960.420259,223
3960.421265,195
3960.422278,145
3960.423269,93
3960.424265,47
3960.425282,2
3960.426273,-42
3960.427309,-42
3960.42824,-12
3960.429246,14
3960.43026,47
3960.431244,106
3960.43225,180
3960.433269,249
3960.434278,307
3960.435281,353
3960.436284,367
3960.437253,329
3960.438272,276
3960.439289,235
3960.440269,184
3960.441262,144
3960.442259,103
3960.443263,40
3960.44427,-8
3960.445255,-8
3960.446289,13
3960.447239,16
3960.448243,42
3960.449223,107
3960.450283,146
3960.451265,155
3960.452302,160
3960.453282,162
3960.454252,177
3960.455258,193
3960.456271,175
3960.457277,116
3960.4583,69
3960.459276,42
3960.460252,53
3960.461243,76
3960.462254,74
3960.463251,73
3960.464244,84
3960.465239,97
3960.466242,93
3960.467305,94
3960.468304,117
3960.469263,149
3960.470271,168
3960.47128,153
3960.47225,110
3960.473255,74
3960.474273,53
3960.475256,68
3960.476251,86
3960.477248,102
3960.478245,130
3960.479242,154
3960.480244,155
3960.481241,161
3960.482258,194
3960.483242,220
3960.484281,244
3960.485268,255
3960.486248,216
3960.487287,181
3960.488279,159
3960.489253,158
3960.490264,171
3960.491237,123
3960.492247,19
3960.493248,-57
3960.494244,-77
3960.495215,-52
3960.496247,-11
3960.497229,29
3960.498226,55
3960.499251,71
3960.500197,112
3960.501256,193
3960.50226,241
3960.503281,230
3960.504278,197
3960.505229,150
3960.506254,111
3960.507296,81
3960.508247,59
3960.509231,68
3960.510243,88
3960.511255,98
3960.512243,77
3960.513228,11
3960.514257,-19
3960.515254,21
3960.516226,83
3960.517236,145
3960.518257,210
3960.519246,237
3960.52025,244
3960.521269,267
3960.522272,270
3960.52325,252
3960.524275,232
3960.525229,224
3960.526229,197
3960.527232,139
3960.528218,86
3960.529213,78
3960.530237,95
3960.531233,103
3960.532233,117
3960.533242,148
3960.534195,195
3960.535257,237
3960.536285,254
3960.537233,236
3960.538242,205
3960.539256,159
3960.540236,117
3960.541262,97
3960.542239,63
3960.543253,11
3960.544222,-18
3960.545223,-11
3960.546207,-3
3960.547254,30
3960.548238,90
3960.549244,159
3960.550237,216
3960.551227,258
3960.552243,282
3960.553249,300
3960.554278,307
3960.555276,308
3960.556243,286
3960.557241,226
3960.558239,149
3960.559224,79
3960.560227,34
3960.561219,16
3960.562225,19
3960.56323,1
3960.564248,-26
3960.565224,7
3960.566203,102
3960.567234,217
3960.568214,306
3960.569243,338
3960.570242,317
3960.571236,294
3960.572228,290
3960.573222,291
3960.574231,279
3960.57524,242
3960.576267,185
3960.577223,143
3960.57824,140
3960.579215,163
3960.580214,181
3960.581272,195
3960.582217,228
3960.583212,260
3960.584208,287
3960.585228,313
3960.586255,316
3960.587352,297
3960.588237,289
3960.589325,308
3960.590247,313
3960.591289,275
3960.592255,205
3960.593274,130
3960.59422,86
3960.595222,82
3960.596206,88
3960.597203,77
3960.598227,86
3960.599216,140
3960.600213,209
3960.601209,248
3960.602236,256
3960.603251,231
3960.604298,190
3960.605221,176
3960.60627,200
3960.60723,219
3960.608269,213
3960.609223,195
3960.6102,159
3960.611197,124
3960.612234,115
3960.613244,111
3960.614241,117
3960.615244,131
3960.61623,135
3960.617212,161
3960.618198,218
3960.619246,262
3960.62029,267
3960.621245,237
3960.622239,183
3960.623235,100
3960.624385,24
3960.62526,1
3960.626302,10
3960.627246,18
3960.628215,61
3960.62921,130
3960.630208,183
3960.631228,213
3960.632225,231
3960.633228,227
3960.634219,200
3960.635188,189
3960.636204,182
3960.63734,185
3960.638231,187
3960.639236,163
3960.640321,121
3960.64125,74
3960.642267,20
3960.643242,-46
3960.644224,-95
3960.645212,-69
3960.646226,39
3960.647222,150
3960.648229,194
3960.649284,194
3960.650208,200
3960.651257,218
3960.652194,222
3960.653227,207
3960.65426,191
3960.655223,185
3960.656227,188
3960.65766,192
3960.65865,169
3960.659247,114
3960.660286,41
3960.661238,18
3960.662215,40
3960.663223,62
3960.664224,96
3960.665214,161
3960.666221,245
3960.667221,312
3960.668195,325
3960.669197,286
3960.670194,208
3960.6713,134
3960.672318,85
3960.673242,62
3960.674225,58
3960.675207,55
3960.676224,33
3960.677262,-6
3960.678251,-34
3960.67921,-5
3960.680236,69
3960.681191,100
3960.682228,106
3960.683216,127
3960.684166,189
3960.685227,257
3960.686185,272
3960.687197,253
3960.688227,228
3960.689213,223
3960.690241,225
3960.69122,202
3960.692221,172
3960.693279,140
3960.694234,85
3960.695233,58
3960.696215,87
3960.697224,129
3960.698196,146
3960.699226,154
3960.700199,172
3960.701202,212
3960.702202,268
3960.703203,288
3960.70507,244
3960.70528,238
3960.706233,257
3960.707239,228
3960.70821,172
3960.709241,111
3960.710213,82
3960.711267,91
3960.712237,129
3960.713225,172
3960.714202,199
3960.71524,243
3960.716194,294
3960.717219,360
3960.718199,432
3960.719205,460
3960.720272,454
3960.721489,447
3960.722231,453
3960.723317,430
3960.724232,370
3960.725211,310
3960.726318,286
3960.727264,310
3960.72822,360
3960.729216,470
3960.73022,615
3960.7312,722
3960.732208,816
3960.733215,896
3960.73421,947
3960.735188,994
3960.736197,1014
3960.737222,975
3960.738182,905
3960.739222,843
3960.740219,769
3960.741252,716
3960.742219,678
3960.743245,619
3960.744194,519
3960.745205,400
3960.746213,307
3960.747201,252
3960.748175,221
3960.749218,223
3960.750207,250
3960.75124,264
3960.752216,242
3960.753206,215
3960.75419,177
3960.755218,136
3960.75621,91
3960.757214,28
3960.758201,-19
3960.759189,-18
3960.760204,-25
3960.761198,-38
3960.762205,-8
3960.7632,45
3960.764175,61
3960.765187,60
3960.766214,91
3960.767201,140
3960.768207,167
3960.769202,173
3960.770187,158
3960.771201,129
3960.77228,91
3960.773219,67
3960.7742,38
3960.775215,15
3960.776197,6
3960.77721,-24
3960.778195,-23
3960.77919,13
3960.780194,39
3960.78121,89
3960.782456,144
3960.783475,201
3960.78441,244
3960.78542,267
3960.786446,267
3960.787422,250
3960.788406,230
3960.789397,224
3960.790395,210
3960.791415,175
3960.792381,130
3960.793411,98
3960.7944,94
3960.795396,113
3960.796391,150
3960.797371,173
3960.798388,171
3960.799371,165
3960.80039,171
3960.801381,186
3960.802371,204
3960.80338,213
3960.804436,213
3960.805367,209
3960.806547,194
3960.807411,159
3960.808389,129
3960.809391,124
3960.810357,132
3960.811351,129
3960.812378,145
3960.81334,158
3960.814341,143
3960.81539,158
3960.816345,196
3960.817412,245
3960.818317,280
3960.819408,276
3960.820372,275
3960.821344,254
3960.822339,209
3960.823366,174
3960.824318,156
3960.82533,125
3960.826319,91
3960.827326,67
3960.828327,40
3960.829316,48
3960.830304,93
3960.831299,152
3960.832301,207
3960.833312,271
3960.834322,312
3960.835322,311
3960.836328,277
3960.837334,256
3960.838304,233
3960.839302,195
3960.84029,156
3960.841304,111
3960.842314,67
3960.843275,32
3960.844286,20
3960.845305,22
3960.846308,48
3960.847288,124
3960.848267,230
3960.849297,300
3960.850287,307
3960.851267,297
3960.852278,298
3960.853263,289
3960.85426,275
3960.855265,240
3960.856274,186
3960.857273,149
3960.858248,133
3960.859314,133
3960.860272,149
3960.861271,149
3960.862239,132
3960.863242,148
3960.864225,194
3960.865236,235
3960.866209,253
3960.86725,255
3960.868222,244
3960.869249,237
3960.870233,236
3960.87124,245
3960.872223,267
3960.873222,263
3960.87422,217
3960.875227,143
3960.876219,78
3960.877249,48
3960.878219,76
3960.879199,132
3960.880202,188
3960.881218,254
3960.882209,327
3960.883216,387
3960.8842,433
3960.885209,447
3960.886187,404
3960.887224,313
3960.888205,259
3960.88925,252
3960.890196,244
3960.89118,247
3960.892234,250
3960.893204,230
3960.8942,194
3960.895188,190
3960.896188,206
3960.897187,222
3960.898183,258
3960.899193,290
3960.900166,311
3960.901171,339
3960.902164,345
3960.903183,361
3960.904173,391
3960.905186,393
3960.906154,360
3960.907197,316
3960.908167,290
3960.909176,273
3960.910151,243
3960.911149,211
3960.912132,199
3960.913198,213
3960.914182,220
3960.915188,229
3960.91621,263
3960.917164,302
3960.918164,310
3960.919159,289
3960.920161,282
3960.921168,291
3960.922168,316
3960.923168,323
3960.924206,301
3960.925191,260
3960.926144,221
3960.927151,187
3960.928159,176
3960.929164,196
3960.930183,259
3960.931198,360
3960.932172,430
3960.933245,442
3960.934165,439
3960.935171,444
3960.93617,420
3960.937152,386
3960.938175,368
3960.939272,375
3960.940188,403
3960.941248,396
3960.942174,353
3960.94315,318
3960.944147,296
3960.945165,289
3960.946183,303
3960.947192,341
3960.948176,399
3960.949187,453
3960.950211,503
3960.951171,538
3960.95216,558
3960.953183,548
3960.954152,525
3960.95516,482
3960.956151,426
3960.957191,375
3960.958148,336
3960.959145,306
3960.960141,297
3960.961141,293
3960.962136,270
3960.963165,249
3960.964181,265
3960.965166,304
3960.966168,334
3960.967186,358
3960.968186,409
3960.96922,453
3960.97015,453
3960.971186,415
3960.972168,375
3960.973185,339
3960.974151,302
3960.975169,277
3960.976153,263
3960.977134,276
3960.97818,310
3960.979136,332
3960.980194,316
3960.981173,295
3960.982183,280
3960.98319,268
3960.984161,268
3960.985173,279
3960.986162,316
3960.987167,342
3960.988208,348
3960.98917,347
3960.990197,332
3960.991152,305
3960.992152,254
3960.993134,190
3960.994135,135
3960.995128,101
3960.996132,97
3960.997161,92
3960.998153,69
3960.999173,63
3961.000147,87
3961.001184,149
3961.002161,220
3961.003205,258
3961.004243,246
3961.005148,220
3961.006134,198
3961.007132,165
3961.008152,115
3961.009133,59
3961.010127,55
3961.01112,65
3961.012132,65
3961.013143,89
3961.014161,135
3961.015167,181
3961.016191,197
3961.017171,176
3961.018155,158
3961.019177,145
3961.020163,122
3961.021925,85
3961.02216,41
3961.023163,12
3961.024142,-7
3961.02519,-4
3961.026131,-7
3961.027129,-24
3961.028131,-20
3961.029126,17
3961.030117,41
3961.031151,57
3961.032155,80
3961.033149,131
3961.034184,165
3961.035145,167
3961.03615,162
3961.037135,136
3961.038148,115
3961.03915,107
3961.040135,99
3961.041143,68
3961.042152,15
3961.043117,-33
3961.044133,-69
3961.045123,-76
3961.04613,-50
3961.047112,-9
3961.048148,56
3961.049154,111
3961.05014,148
3961.051163,203
3961.052139,244
3961.053129,231
3961.054142,187
3961.055141,140
3961.056125,122
3961.057172,117
3961.058125,74
3961.059131,-13
3961.060115,-92
3961.061119,-119
3961.062128,-74
3961.063125,-28
3961.064121,-38
3961.065147,-18
3961.066145,47
3961.067135,123
3961.068156,183
3961.069277,189
3961.070522,179
3961.071145,155
3961.072117,148
3961.07313,148
3961.074173,108
3961.075142,67
3961.076142,-3
3961.077173,-85
3961.07812,-113
3961.079123,-89
3961.080103,-33
3961.08114,28
3961.082174,79
3961.08319,117
3961.084131,159
3961.085156,199
3961.086122,188
3961.087128,137
3961.088141,77
3961.089128,24
3961.090118,-10
3961.091123,-34
3961.092131,-38
3961.093142,-61
3961.094108,-102
3961.095114,-119
3961.096116,-113
3961.097111,-47
3961.098177,47
3961.099151,113
3961.100142,156
3961.10116,200
3961.102153,207
3961.103148,177
3961.104135,150
3961.10516,135
3961.106142,119
3961.107131,103
3961.108163,85
3961.109117,60
3961.110138,11
3961.111129,-29
3961.112116,7
3961.113148,97
3961.114146,152
3961.11511,140
3961.116153,121
3961.117176,128
3961.118127,161
3961.119195,172
3961.120137,146
3961.121152,88
3961.122123,49
3961.123132,56
3961.124112,71
3961.125109,80
3961.126107,62
3961.127104,53
3961.128117,58
3961.129179,51
3961.130106,26
3961.131097,9
3961.132109,37
3961.133143,89
3961.134148,132
3961.135151,156
3961.136131,166
3961.137141,174
3961.138129,144
3961.13912,101
3961.140137,66
3961.141127,51
3961.142121,28
3961.143093,-32
3961.144097,-58
3961.1452,-12
3961.146512,55
3961.147101,80
3961.148079,86
3961.149106,115
3961.150152,144
3961.1512,147
3961.152141,138
3961.153138,106
3961.154111,60
3961.155128,59
3961.156163,63
3961.15712,33
3961.158099,17
3961.159125,34
3961.160115,37
3961.161094,17
3961.162114,2
3961.16311,6
3961.164139,26
3961.165087,35
3961.166104,54
3961.167233,101
3961.168143,145
3961.169133,160
3961.170158,188
3961.171135,234
3961.172133,247
3961.173138,238
3961.174106,191
3961.175136,124
3961.176124,53
3961.177143,-12
3961.178096,-49
3961.179098,-43
3961.180114,-5
3961.181091,55
3961.182095,126
3961.183108,191
3961.184137,230
3961.185139,245
3961.186127,223
3961.187118,143
3961.188121,69
3961.189145,59
3961.190141,73
3961.191091,76
3961.192121,34
3961.193099,-46
3961.194098,-103
3961.19511,-130
3961.196111,-130
3961.197101,-90
3961.19809,-11
3961.199155,74
3961.200112,129
3961.201156,140
3961.202115,152
3961.203126,182
3961.204142,190
3961.205128,151
3961.206118,123
3961.207131,121
3961.208095,120
3961.209093,93
3961.210112,32
3961.211112,-46
3961.212128,-91
3961.213088,-54
3961.214105,17
3961.215091,101
3961.216081,160
3961.217117,154
3961.21812,132
3961.219114,120
3961.220082,120
3961.221123,120
3961.222169,116
3961.223131,99
3961.22413,77
3961.225119,53
3961.226095,16
3961.227119,-23
3961.228106,-37
3961.229144,-19
3961.230088,18
3961.231107,52
3961.232088,92
3961.233102,159
3961.234099,241
3961.235157,280
3961.236115,265
3961.237161,224
3961.23814,162
3961.239118,94
3961.240104,37
3961.241101,-5
3961.242107,-28
3961.243077,-31
3961.244096,-43
3961.245104,-56
3961.246096,-44
3961.247093,-11
3961.248072,36
3961.249063,98
3961.250081,141
3961.251113,149
3961.252112,143
3961.253159,124
3961.254086,82
3961.255116,34
3961.256148,23
3961.257127,41
3961.258091,51
3961.259092,44
3961.260088,22
3961.261091,-17
3961.262098,-31
3961.263097,-26
3961.264071,-8
3961.265074,46
3961.266069,101
3961.267084,123
3961.268098,144
3961.269107,160
3961.270114,150
3961.271098,116
3961.2721,80
3961.273081,58
3961.274103,51
3961.275092,52
3961.276088,28
3961.277091,-31
3961.278087,-87
3961.279083,-131
3961.280075,-149
3961.281121,-132
3961.282078,-51
3961.283081,65
3961.284051,165
3961.285061,209
3961.286081,208
3961.287128,181
3961.288072,144
3961.289076,86
3961.290096,36
3961.291135,46
3961.292093,85
3961.293107,86
3961.294062,64
3961.295091,65
3961.296079,72
3961.297079,75
3961.298089,109
3961.299084,159
3961.30007,187
3961.301088,188
3961.302071,179
3961.303097,144
3961.304096,64
3961.305084,7
3961.306072,-24
3961.307112,-30
3961.308078,-26
3961.309063,-23
3961.310082,-15
3961.311073,1
3961.312047,30
3961.313073,83
3961.314093,145
3961.315075,176
3961.316062,166
3961.317076,160
3961.318063,183
3961.319054,203
3961.320078,189
3961.321085,169
3961.322094,146
3961.32309,98
3961.324063,50
3961.325067,20
3961.326075,-15
3961.327091,-61
3961.328049,-84
3961.329064,-42
3961.330043,22
3961.331052,65
3961.332058,99
3961.333066,132
3961.334056,163
3961.33507,180
3961.336044,185
3961.337076,184
3961.338086,165
3961.339078,117
3961.340071,67
3961.34109,35
3961.342066,-6
3961.343095,-65
3961.344068,-107
3961.345074,-90
3961.346058,-44
3961.34706,-20
3961.348076,-19
3961.349069,-6
3961.350063,28
3961.35106,77
3961.35206,145
3961.353043,174
3961.354084,168
3961.355088,152
3961.356062,142
3961.357093,125
3961.358078,77
3961.359067,22
3961.360066,1
3961.361067,12
3961.362064,23
3961.363056,4
3961.364058,3
3961.36508,29
3961.366057,57
3961.367087,81
3961.368053,95
3961.369055,101
3961.370056,89
3961.371061,86
3961.372072,85
3961.373069,89
3961.37406,100
3961.375078,115
3961.376057,108
3961.377055,77
3961.378063,37
3961.379055,33
3961.380049,64
3961.381053,91
3961.38204,122
3961.383057,141
3961.384045,154
3961.385039,179
3961.386057,214
3961.387062,231
3961.388065,216
3961.389065,194
3961.390063,178
3961.39108,169
3961.392059,157
3961.393059,90
3961.39406,22
3961.395058,16
3961.396041,42
3961.397056,53
3961.398043,65
3961.399052,103
3961.400047,147
3961.40108,185
3961.402053,210
3961.403053,204
3961.404052,164
3961.405124,113
3961.406055,102
3961.407055,118
3961.40806,109
3961.409049,80
3961.410035,48
3961.41104,22
3961.412043,-14
3961.413055,-47
3961.41406,-44
3961.415062,-9
3961.416065,39
3961.417085,94
3961.418039,153
3961.419066,198
3961.420051,195
3961.421063,165
3961.42208,139
3961.423079,107
3961.424058,61
3961.425071,35
3961.426044,26
3961.42705,20
3961.42805,14
3961.429045,1
3961.430053,-2
3961.431043,17
3961.43204,56
3961.433056,95
3961.434037,99
3961.435067,77
3961.436057,45
3961.437037,12
3961.438061,-6
3961.439067,-4
3961.440064,-14
3961.441083,-22
3961.442044,-16
3961.443081,-15
3961.444048,-11
3961.445041,10
3961.446029,37
3961.447032,56
3961.448029,73
3961.449039,94
3961.450034,123
3961.451052,158
3961.452057,198
3961.453014,215
3961.454017,201
3961.455056,161
3961.456057,123
3961.457056,98
3961.458056,97
3961.459072,77
3961.460074,25
3961.461054,-12
3961.462064,-19
3961.463066,-17
3961.464052,7
3961.465045,57
3961.466053,100
3961.467031,132
3961.468073,162
3961.469027,165
3961.470045,130
3961.471049,82
3961.472042,45
3961.473053,22
3961.474035,-15
3961.475077,-45
3961.476078,-70
3961.477051,-98
3961.478033,-90
3961.479033,-72
3961.48003,-55
3961.481038,-24
3961.482036,27
3961.483055,63
3961.484055,86
3961.485042,101
3961.486029,127
3961.487024,154
3961.488059,161
3961.489021,122
3961.490096,52
3961.491043,-7
3961.492063,-45
3961.493047,-52
3961.494032,-46
3961.495031,-13
3961.496024,52
3961.49703,84
3961.498027,74
3961.49904,73
3961.500034,90
3961.501031,125
3961.502025,150
3961.50303,143
3961.504045,113
3961.505045,72
3961.506032,32
3961.507055,-29
3961.508036,-80
3961.509044,-110
3961.510029,-110
3961.511054,-90
3961.512033,-66
3961.513049,-24
3961.51403,25
3961.515034,65
3961.516041,111
3961.517001,175
3961.51803,219
3961.519006,226
3961.52005,207
3961.521023,183
3961.522003,199
3961.523004,188
3961.524038,120
3961.525048,55
3961.526046,36
3961.527034,58
3961.528028,74
3961.529064,101
3961.530034,143
3961.531022,202
3961.53203,267
3961.533011,331
3961.534015,393
3961.535013,422
3961.536009,428
3961.537027,443
3961.538013,466
3961.539008,473
3961.540027,455
3961.541039,422
3961.542051,420
3961.543041,435
3961.54403,455
3961.545044,540
3961.546024,663
3961.54702,792
3961.548035,924
3961.549005,1016
3961.550022,1021
3961.551035,961
3961.552023,890
3961.553037,821
3961.555628,725
3961.555647,653
3961.556018,606
3961.557045,519
3961.558055,392
3961.559039,238
3961.560025,99
3961.561045,24
3961.56203,24
3961.563032,35
3961.564029,10
3961.565035,-12
3961.566006,19
3961.566997,76
3961.568018,110
3961.569029,115
3961.570001,80
3961.571021,5
3961.572006,-50
3961.573017,-93
3961.57404,-127
3961.575056,-144
3961.576103,-180
3961.577041,-235
3961.578092,-228
3961.579025,-168
3961.580044,-129
3961.580992,-100
3961.582058,-74
3961.583034,-30
3961.584021,46
3961.585014,102
3961.586066,114
3961.587028,109
3961.588051,101
3961.58904,85
3961.590058,67
3961.591061,49
3961.592012,14
3961.593027,-38
3961.594033,-52
3961.595261,-34
3961.596265,5
3961.597238,48
3961.598265,88
3961.599244,106
3961.600219,111
3961.601224,129
3961.602239,159
3961.603231,161
3961.604223,116
3961.605252,72
3961.606251,36
3961.60723,-35
3961.60823,-109
3961.609238,-135
3961.610231,-139
3961.611194,-113
3961.612209,-60
3961.613221,-31
3961.614196,-17
3961.615217,-13
3961.616188,15
3961.617211,88
3961.618201,168
3961.619194,215
3961.620195,224
3961.621197,201
3961.622193,175
3961.623199,139
3961.624191,100
3961.625195,78
3961.626189,53
3961.6272,36
3961.628172,47
3961.629186,62
3961.63017,51
3961.631186,26
3961.632185,36
3961.633169,47
3961.634168,76
3961.635176,114
3961.636153,119
3961.637166,65
3961.638167,6
3961.639152,-20
3961.640166,-38
3961.64115,-75
3961.64215,-105
3961.643129,-111
3961.644122,-97
3961.645139,-60
3961.646133,-20
3961.647185,24
3961.648152,96
3961.64919,163
3961.650129,213
3961.651128,230
3961.652121,209
3961.653128,179
3961.654131,161
3961.655127,161
3961.65613,157
3961.657142,150
3961.658161,133
3961.659111,92
3961.660127,64
3961.661142,45
3961.662101,12
3961.663122,-12
3961.664348,5
3961.665322,57
3961.666107,113
3961.667108,149
3961.668065,164
3961.669134,170
3961.670096,176
3961.671102,163
3961.672073,123
3961.673113,81
3961.674065,50
3961.675123,5
3961.676107,-65
3961.677094,-117
3961.678053,-123
3961.679058,-96
3961.680053,-47
3961.681069,6
3961.682053,64
3961.683064,130
3961.68405,204
3961.685074,261
3961.686073,284
3961.687043,302
3961.688046,302
3961.689063,286
3961.690043,219
3961.691049,121
3961.69207,53
3961.693155,19
3961.694052,2
3961.695066,-3
3961.696041,30
3961.697031,102
3961.698029,172
3961.699039,184
3961.700012,158
3961.701008,160
3961.702024,186
3961.703021,195
3961.704011,195
3961.705,199
3961.706014,192
3961.706995,171
3961.708032,158
3961.708984,156
3961.710283,144
3961.711168,146
3961.712008,150
3961.712992,139
3961.713962,131
3961.71497,135
3961.71598,133
3961.717002,142
3961.717971,172
3961.71898,202
3961.719976,216
3961.720971,222
3961.721969,215
3961.722969,189
3961.723975,134
3961.724976,91
3961.72598,40
3961.728007,20
3961.728063,63
3961.728952,115
3961.729966,155
3961.730943,217
3961.731979,278
3961.732983,289
3961.733992,279
3961.73499,291
3961.735954,315
3961.737002,307
3961.737992,273
3961.738974,239
3961.739978,220
3961.740973,229
3961.741974,215
3961.742951,173
3961.743977,137
3961.744974,137
3961.745973,167
3961.746973,186
3961.747942,195
3961.748954,209
3961.749981,231
3961.750999,253
3961.751985,256
3961.752972,253
3961.753981,277
3961.75497,323
3961.75598,359
3961.756965,338
3961.757952,277
3961.75897,198
3961.759975,125
3961.760961,82
3961.761981,87
3961.762947,122
3961.763967,146
3961.764942,157
3961.765954,180
3961.767022,231
3961.767975,272
3961.768966,279
3961.769975,284
3961.77098,304
3961.771977,339
3961.772945,348
3961.773947,322
3961.774952,272
3961.775965,217
3961.777023,177
3961.777959,180
3961.778969,234
3961.779967,284
3961.78094,312
3961.78193,317
3961.782933,325
3961.783967,353
3961.784983,375
3961.785948,360
3961.786979,292
3961.787968,223
3961.788968,197
3961.789961,187
3961.790983,162
3961.791957,111
3961.792948,67
3961.793931,64
3961.794938,92
3961.795936,114
3961.796932,120
3961.797945,126
3961.79893,134
3961.799921,136
3961.800961,140
3961.801973,161
3961.802978,173
3961.803931,150
3961.804981,99
3961.805947,60
3961.806954,39
3961.807967,34
3961.80896,54
3961.809941,75
3961.810965,51
3961.811977,30
3961.812939,17
3961.813959,20
3961.814942,66
3961.81594,89
3961.816949,60
3961.817983,27
3961.818987,-5
3961.819952,-58
3961.820989,-135
3961.821962,-184
3961.822949,-184
3961.823946,-176
3961.824949,-180
3961.825952,-135
3961.82694,-82
3961.827948,-49
3961.828947,-23
3961.829922,-5
3961.830928,25
3961.83196,29
3961.832933,-8
3961.83396,-49
3961.834966,-85
3961.835977,-121
3961.836972,-142
3961.837959,-156
3961.838942,-151
3961.839945,-140
3961.840974,-143
3961.841928,-147
3961.842936,-141
3961.843949,-114
3961.844941,-85
3961.845921,-58
3961.846914,-35
3961.847955,-7
3961.848924,35
3961.849938,61
3961.850949,51
3961.851956,-2
3961.852951,-66
3961.853968,-115
3961.854956,-117
3961.855974,-69
3961.85694,-41
3961.85797,-68
3961.858951,-117
3961.85995,-180
3961.860951,-243
3961.861947,-300
3961.862937,-310
3961.863942,-272
3961.86492,-187
3961.865925,-91
3961.866964,1
3961.867942,50
3961.868958,56
3961.869944,38
3961.870927,3
3961.871964,-35
3961.872977,-77
3961.873945,-140
3961.874924,-179
3961.875945,-177
3961.876935,-151
3961.87793,-108
3961.878934,-91
3961.879926,-108
3961.880919,-118
3961.881924,-88
3961.882936,-44
3961.883941,-19
3961.884943,-28
3961.885947,-54
3961.886945,-71
3961.887936,-71
3961.88895,-76
3961.889943,-102
3961.890932,-142
3961.891938,-161
3961.892931,-175
3961.893932,-202
3961.894935,-250
3961.895925,-289
3961.896926,-299
3961.897918,-268
3961.898918,-216
3961.899915,-181
3961.900925,-111
3961.901927,-28
3961.902941,15
3961.903941,3
3961.904953,-35
3961.905941,-83
3961.906941,-103
3961.90794,-96
3961.908932,-94
3961.909918,-127
3961.910934,-180
3961.911929,-189
3961.912931,-174
3961.913926,-148
3961.914961,-93
3961.915938,-35
3961.916955,13
3961.917925,37
3961.918954,41
3961.919954,25
3961.920928,-6
3961.921941,-29
3961.92294,-46
3961.92393,-49
3961.924913,-71
3961.925927,-100
3961.926913,-133
3961.927924,-157
3961.928945,-173
3961.929955,-176
3961.93091,-143
3961.931917,-108
3961.932916,-86
3961.933919,-51
3961.934919,-19
3961.93593,-15
3961.936908,-47
3961.937947,-108
3961.938927,-170
3961.939912,-218
3961.940908,-230
3961.94193,-212
3961.942915,-214
3961.943927,-205
3961.944929,-149
3961.945952,-69
3961.946921,-40
3961.947913,-70
3961.948905,-113
3961.949908,-109
3961.950901,-78
3961.951895,-43
3961.952974,-26
3961.953945,-23
3961.954908,-25
3961.955934,-56
3961.956904,-119
3961.95792,-175
3961.958917,-204
3961.959924,-194
3961.960908,-158
3961.961927,-119
3961.96291,-96
3961.963908,-98
3961.964898,-71
3961.965909,-15
3961.966893,27
3961.967907,59
3961.968934,60
3961.969917,42
3961.97095,32
3961.971926,12
3961.972916,-36
3961.973918,-103
3961.974912,-146
3961.975916,-169
3961.976926,-175
3961.977948,-153
3961.978906,-116
3961.979915,-79
3961.980901,-39
3961.98191,-4
3961.982892,20
3961.983887,43
3961.984946,57
3961.985919,39
3961.986897,4
3961.987919,-7
3961.98892,3
3961.989923,-9
3961.990916,-45
3961.991937,-89
3961.992919,-132
3961.993921,-149
3961.994903,-142
3961.99591,-127
3961.996902,-105
3961.997912,-66
3961.998905,-12
3961.999921,49
3962.00089,78
3962.00189,69
3962.00291,28
3962.003905,-38
3962.004918,-54
3962.005908,-31
3962.006918,-34
3962.00791,-86
3962.00892,-153
3962.009893,-201
3962.010896,-224
3962.011897,-230
3962.012899,-240
3962.013895,-272
3962.014909,-260
3962.015884,-195
3962.016876,-124
3962.017882,-58
3962.018886,-45
3962.019885,-79
3962.020879,-107
3962.021925,-99
3962.022994,-80
3962.024517,-85
3962.024896,-107
3962.025903,-122
3962.026896,-142
3962.027901,-181
3962.028916,-208
3962.029918,-192
3962.030895,-151
3962.031886,-97
3962.032892,-43
3962.033887,-3
3962.0349,1
3962.035885,-22
3962.036871,-50
3962.037884,-64
3962.038924,-72
3962.03989,-104
3962.040906,-126
3962.041914,-115
3962.042906,-99
3962.043899,-64
3962.044916,-18
3962.045901,-13
3962.046897,-37
3962.047905,-67
3962.048882,-87
3962.049889,-72
3962.050915,-32
3962.051882,-29
3962.052895,-59
3962.053877,-90
3962.054879,-99
3962.055903,-127
3962.056898,-174
3962.057887,-209
3962.058879,-238
3962.059904,-252
3962.060875,-248
3962.061907,-201
