timestamp,New ECG Sample
3212.50905,-73
3212.510045,-40
3212.511033,-11
3212.51205,18
3212.513056,26
3212.514051,21
3212.515069,26
3212.516059,41
3212.51708,26
3212.518066,-9
3212.519044,-36
3212.520122,-51
3212.521062,-62
3212.52205,-68
3212.523065,-72
3212.52404,-76
3212.525075,-66
3212.52606,-40
3212.527059,-12
3212.528046,25
3212.529043,60
3212.530039,78
3212.531045,74
3212.532028,50
3212.533046,5
3212.534076,-37
3212.535047,-48
3212.536071,-67
3212.537094,-80
3212.538078,-64
3212.539057,-33
3212.540037,-26
3212.541059,-26
3212.542112,-25
3212.543079,-31
3212.544038,-30
3212.545059,-30
3212.546058,-17
3212.54703,6
3212.548041,21
3212.549037,3
3212.550035,-41
3212.551075,-92
3212.552053,-126
3212.553059,-123
3212.554089,-106
3212.555072,-93
3212.556038,-73
3212.557046,-49
3212.558046,-20
3212.55907,22
3212.560047,42
3212.56102,35
3212.562092,35
3212.563046,37
3212.564044,24
3212.565056,16
3212.566033,19
3212.567048,10
3212.568077,-30
3212.569066,-78
3212.570093,-97
3212.571054,-109
3212.572059,-111
3212.573048,-102
3212.574036,-85
3212.575028,-56
3212.576122,-38
3212.577036,-22
3212.578051,-3
3212.579047,25
3212.580053,48
3212.581021,59
3212.582025,54
3212.583038,41
3212.584041,19
3212.585053,-3
3212.586054,-28
3212.587048,-58
3212.588069,-81
3212.589039,-94
3212.590041,-96
3212.591068,-70
3212.592096,-29
3212.593091,-18
3212.594033,-2
3212.595032,32
3212.59604,71
3212.597049,102
3212.598092,117
3212.599044,113
3212.60002,96
3212.60103,51
3212.602046,-16
3212.603067,-83
3212.6041,-134
3212.605043,-167
3212.606054,-176
3212.607054,-153
3212.608029,-109
3212.609046,-62
3212.610039,-36
3212.611036,-21
3212.612026,-2
3212.61305,36
3212.614053,70
3212.615018,92
3212.61602,78
3212.617036,37
3212.618044,-8
3212.619095,-32
3212.620082,-23
3212.621046,-7
3212.622048,-24
3212.623033,-40
3212.624045,-20
3212.625062,17
3212.626049,27
3212.627035,14
3212.628058,-3
3212.629052,6
3212.630041,18
3212.631025,22
3212.632029,29
3212.633017,32
3212.634028,28
3212.635028,9
3212.636058,-30
3212.637091,-69
3212.638037,-97
3212.639054,-118
3212.640036,-118
3212.641064,-92
3212.642033,-37
3212.643024,41
3212.64405,120
3212.64503,164
3212.646037,175
3212.647024,172
3212.648007,151
3212.64902,118
3212.650028,91
3212.650994,68
3212.652023,48
3212.653041,16
3212.654051,-24
3212.655035,-40
3212.65603,-31
3212.657013,-14
3212.658051,10
3212.659031,29
3212.660028,44
3212.661026,51
3212.662043,47
3212.663008,68
3212.664043,115
3212.665014,136
3212.666009,124
3212.667021,92
3212.668008,42
3212.669014,11
3212.670061,-6
3212.671035,-22
3212.672043,-38
3212.673017,-28
3212.674034,-5
3212.675013,22
3212.676017,56
3212.677036,95
3212.678067,126
3212.679029,155
3212.680003,167
3212.680997,152
3212.682014,131
3212.683019,100
3212.684009,52
3212.685014,-8
3212.686151,-65
3212.687336,-103
3212.688205,-117
3212.689037,-103
3212.690029,-66
3212.69103,-19
3212.692011,14
3212.69302,32
3212.694016,55
3212.695032,98
3212.696071,113
3212.697046,81
3212.698029,37
3212.699042,-6
3212.700015,-50
3212.701014,-90
3212.702021,-116
3212.70303,-104
3212.704042,-71
3212.705038,-58
3212.70603,-74
3212.707036,-87
3212.708058,-72
3212.709019,-39
3212.710025,4
3212.711045,40
3212.712059,51
3212.713062,44
3212.714013,39
3212.71506,52
3212.716009,71
3212.717022,65
3212.71801,48
3212.719014,37
3212.719984,10
3212.721031,-46
3212.722027,-84
3212.723027,-104
3212.724025,-125
3212.725012,-124
3212.726034,-103
3212.72703,-71
3212.728023,-30
3212.729013,-7
3212.730002,8
3212.73102,7
3212.732015,-13
3212.733028,-31
3212.734017,-44
3212.735014,-45
3212.73602,-32
3212.737015,-19
3212.73804,-36
3212.739046,-77
3212.740045,-107
3212.740999,-113
3212.7423,-97
3212.743041,-74
3212.74404,-49
3212.745029,-25
3212.746009,-7
3212.747037,19
3212.748001,49
3212.749025,63
3212.75005,59
3212.751038,42
3212.752051,14
3212.753012,-25
3212.754002,-59
3212.755029,-79
3212.756047,-83
3212.757035,-81
3212.758029,-54
3212.759048,-29
3212.760006,-11
3212.761031,22
3212.762026,79
3212.763032,133
3212.764034,165
3212.764991,170
3212.766023,163
3212.767018,154
3212.768012,147
3212.769017,154
3212.770028,152
3212.771028,139
3212.772026,125
3212.773044,130
3212.774034,153
3212.775032,190
3212.776026,248
3212.777015,317
3212.778015,366
3212.779048,410
3212.780033,444
3212.781035,456
3212.782025,429
3212.783035,361
3212.784048,268
3212.785037,181
3212.786036,131
3212.78701,114
3212.788019,98
3212.789033,74
3212.79003,47
3212.791035,8
3212.792092,-34
3212.79302,-72
3212.794064,-100
3212.795041,-121
3212.796031,-144
3212.797029,-164
3212.798015,-180
3212.799011,-193
3212.800018,-213
3212.801029,-235
3212.801999,-252
3212.80302,-258
3212.804014,-247
3212.804995,-238
3212.806038,-222
3212.807059,-199
3212.808049,-195
3212.80907,-197
3212.810022,-171
3212.811022,-119
3212.812068,-71
3212.813031,-17
3212.814035,18
3212.815012,19
3212.816015,15
3212.817046,10
3212.81803,-12
3212.819018,-46
3212.820066,-59
3212.821033,-60
3212.822009,-57
3212.823054,-48
3212.824058,-21
3212.825286,20
3212.82631,53
3212.827262,82
3212.828259,100
3212.829259,122
3212.830255,156
3212.831251,143
3212.832265,106
3212.833264,80
3212.83428,51
3212.835289,17
3212.836264,-24
3212.837244,-45
3212.838264,-51
3212.839252,-49
3212.840263,-58
3212.841251,-70
3212.8423,-67
3212.843263,-40
3212.84427,-15
3212.845225,11
3212.846241,49
3212.847255,71
3212.848247,78
3212.849214,73
3212.850212,64
3212.851221,53
3212.852243,31
3212.853291,-8
3212.854209,-45
3212.855226,-58
3212.85623,-66
3212.857212,-84
3212.858202,-92
3212.859215,-65
3212.860179,-10
3212.861203,36
3212.862212,58
3212.8632,68
3212.86419,86
3212.865204,106
3212.866196,107
3212.867195,77
3212.868183,26
3212.869183,-34
3212.870193,-87
3212.871188,-112
3212.872156,-112
3212.873172,-109
3212.874166,-102
3212.875152,-75
3212.876169,-35
3212.877163,14
3212.878154,59
3212.879146,98
3212.880162,126
3212.881165,119
3212.882174,74
3212.883155,34
3212.884139,14
3212.885159,7
3212.886172,-10
3212.88715,-41
3212.888141,-68
3212.889151,-80
3212.890162,-76
3212.891138,-46
3212.892123,6
3212.893176,50
3212.894155,69
3212.895134,89
3212.896153,122
3212.897199,152
3212.898126,173
3212.899133,145
3212.900157,83
3212.901134,35
3212.902138,19
3212.90313,15
3212.904155,21
3212.90512,25
3212.906142,20
3212.907126,9
3212.908128,12
3212.909136,34
3212.910153,50
3212.911109,81
3212.912114,131
3212.913107,155
3212.914103,143
3212.9151,112
3212.916095,74
3212.917084,40
3212.918099,6
3212.919075,-34
3212.9201,-52
3212.921093,-42
3212.922073,-10
3212.923063,4
3212.924098,14
3212.925074,40
3212.92608,70
3212.927063,86
3212.928048,116
3212.929063,155
3212.930066,183
3212.931069,188
3212.932052,154
3212.933049,113
3212.934028,85
3212.935067,51
3212.936069,29
3212.937037,3
3212.938041,-40
3212.939055,-72
3212.940041,-71
3212.94106,-56
3212.94204,-28
3212.943039,24
3212.944061,73
3212.945067,118
3212.94606,153
3212.947025,175
3212.948035,177
3212.949017,157
3212.950025,125
3212.951018,99
3212.952032,68
3212.953012,41
3212.954024,33
3212.955019,38
3212.956044,49
3212.957016,50
3212.958024,47
3212.959023,60
3212.960024,83
3212.961,105
3212.961994,127
3212.963016,145
3212.964038,152
3212.965011,151
3212.966036,144
3212.967021,125
3212.968033,109
3212.969036,90
3212.970079,70
3212.971008,59
3212.972034,59
3212.973029,70
3212.974046,96
3212.975035,124
3212.976015,142
3212.977029,152
3212.978041,169
3212.979018,214
3212.980043,269
3212.981038,293
3212.982043,291
3212.983023,258
3212.984023,206
3212.985032,152
3212.986024,104
3212.987003,73
3212.988007,69
3212.989053,93
3212.990021,124
3212.991033,148
3212.992027,186
3212.993032,219
3212.994016,230
3212.995009,244
3212.996,254
3212.997019,258
3212.99802,253
3212.999048,257
3213.000031,261
3213.001028,240
3213.002029,207
3213.003005,171
3213.004008,134
3213.005003,110
3213.006052,103
3213.007063,109
3213.00805,133
3213.009011,170
3213.010022,200
3213.011056,224
3213.012009,258
3213.013025,293
3213.014019,311
3213.015023,316
3213.016024,303
3213.017036,271
3213.018035,228
3213.019022,169
3213.020011,128
3213.021042,125
3213.022004,136
3213.023029,134
3213.024015,128
3213.025031,139
3213.026023,172
3213.027006,209
3213.028037,256
3213.029027,306
3213.030009,345
3213.031033,355
3213.032026,344
3213.033039,332
3213.03405,305
3213.035021,263
3213.036042,237
3213.037027,221
3213.03804,197
3213.039038,191
3213.040037,203
3213.041039,231
3213.042036,245
3213.043017,243
3213.044032,231
3213.045036,223
3213.046011,246
3213.047006,273
3213.048068,285
3213.049049,271
3213.050027,208
3213.051047,142
3213.052034,95
3213.053033,65
3213.05404,55
3213.055035,52
3213.056052,45
3213.057038,39
3213.058015,44
3213.059027,53
3213.060008,77
3213.061014,108
3213.062024,139
3213.062987,154
3213.064011,152
3213.065042,155
3213.066051,146
3213.067041,105
3213.068048,50
3213.069014,-2
3213.070015,-60
3213.071025,-107
3213.072023,-119
3213.07301,-110
3213.073999,-99
3213.075014,-78
3213.076017,-52
3213.077041,-14
3213.07804,28
3213.078991,59
3213.080001,84
3213.081058,81
3213.08208,43
3213.083043,-11
3213.084039,-74
3213.085028,-126
3213.086026,-160
3213.087058,-179
3213.088045,-182
3213.089036,-169
3213.090036,-156
3213.09103,-138
3213.092027,-132
3213.093071,-130
3213.094636,-101
3213.09559,-50
3213.096025,-2
3213.097024,34
3213.098019,48
3213.099049,39
3213.100058,-3
3213.101043,-53
3213.102042,-94
3213.103009,-114
3213.104033,-125
3213.105023,-140
3213.106038,-150
3213.107037,-164
3213.108027,-180
3213.109024,-175
3213.110038,-151
3213.111081,-117
3213.112055,-76
3213.113035,-49
3213.114012,-36
3213.115058,-45
3213.116036,-75
3213.117097,-107
3213.118044,-146
3213.119049,-162
3213.120068,-164
3213.121059,-173
3213.122028,-189
3213.123035,-204
3213.124043,-201
3213.125024,-184
3213.126034,-165
3213.127074,-142
3213.128046,-96
3213.129028,-51
3213.13004,-33
3213.131035,-43
3213.13213,-84
3213.133044,-137
3213.134057,-161
3213.135058,-170
3213.136024,-167
3213.137062,-165
3213.138022,-177
3213.139041,-195
3213.140025,-206
3213.141642,-194
3213.14206,-158
3213.143032,-126
3213.144041,-113
3213.145016,-105
3213.146029,-88
3213.147046,-76
3213.148041,-87
3213.149011,-103
3213.150045,-106
3213.151042,-119
3213.152034,-153
3213.153045,-183
3213.154023,-207
3213.155033,-232
3213.156032,-245
3213.157722,-241
3213.158032,-198
3213.159023,-127
3213.160023,-66
3213.16103,-28
3213.162027,-24
3213.163036,-34
3213.16414,-38
3213.165012,-39
3213.166008,-38
3213.16705,-46
3213.168043,-87
3213.169026,-147
3213.170036,-190
3213.171037,-211
3213.17203,-222
3213.173045,-211
3213.174028,-194
3213.175044,-169
3213.176042,-126
3213.177035,-88
3213.178027,-68
3213.179039,-56
3213.180025,-56
3213.181063,-56
3213.182018,-59
3213.18304,-68
3213.184045,-99
3213.185052,-143
3213.186046,-193
3213.187048,-222
3213.188043,-230
3213.189058,-217
3213.190034,-199
3213.191044,-179
3213.19204,-151
3213.193013,-115
3213.194012,-73
3213.195027,-47
3213.196049,-57
3213.197042,-84
3213.198013,-95
3213.199012,-97
3213.200021,-117
3213.201036,-142
3213.202055,-152
3213.203046,-157
3213.204045,-165
3213.205045,-186
3213.206037,-208
3213.207046,-212
3213.208024,-200
3213.209026,-168
3213.210032,-125
3213.211025,-84
3213.212014,-38
3213.213024,4
3213.214016,12
3213.21499,-11
3213.216021,-39
3213.217015,-73
3213.218029,-109
3213.21902,-142
3213.220076,-166
3213.221035,-186
3213.222013,-202
3213.223062,-203
3213.224028,-178
3213.22503,-147
3213.226032,-120
3213.227041,-99
3213.228022,-76
3213.229028,-40
3213.23004,-3
3213.23102,11
3213.232025,8
3213.233044,-9
3213.234041,-43
3213.235038,-86
3213.236036,-127
3213.237014,-160
3213.238028,-180
3213.239035,-178
3213.240052,-140
3213.241035,-94
3213.242023,-61
3213.243058,-70
3213.244003,-100
3213.24505,-107
3213.246025,-75
3213.247048,-41
3213.248028,-31
3213.249033,-43
3213.250046,-78
3213.251039,-131
3213.252047,-184
3213.253022,-218
3213.254026,-213
3213.25505,-185
3213.25605,-154
3213.257043,-131
3213.258037,-120
3213.259057,-116
3213.260041,-111
3213.261062,-94
3213.262051,-68
3213.26304,-42
3213.264033,-10
3213.265041,11
3213.266031,-17
3213.267014,-74
3213.268005,-128
3213.269055,-160
3213.270071,-172
3213.271076,-182
3213.272055,-188
3213.273047,-185
3213.27404,-153
3213.275061,-110
3213.27607,-83
3213.277016,-77
3213.27803,-81
3213.279037,-93
3213.280037,-85
3213.281029,-60
3213.282025,-51
3213.283048,-70
3213.284025,-101
3213.285016,-106
3213.286038,-92
3213.287042,-126
3213.288071,-161
3213.289064,-173
3213.290024,-166
3213.29105,-148
3213.292041,-129
3213.293056,-101
3213.294038,-70
3213.295012,-50
3213.296028,-43
3213.297036,-43
3213.298039,-47
3213.299027,-57
3213.300042,-93
3213.301039,-155
3213.302006,-195
3213.303056,-200
3213.30406,-197
3213.305063,-200
3213.306069,-197
3213.30705,-171
3213.308049,-132
3213.309027,-92
3213.310041,-67
3213.311044,-42
3213.312032,-18
3213.313071,-14
3213.314043,-26
3213.315051,-44
3213.316045,-63
3213.317041,-63
3213.31804,-58
3213.319028,-73
3213.320086,-88
3213.321059,-116
3213.32204,-153
3213.323144,-177
3213.324058,-183
3213.325066,-170
3213.32607,-137
3213.327045,-95
3213.328066,-58
3213.329054,-40
3213.33005,-23
3213.331041,-16
3213.33202,-38
3213.333038,-64
3213.334032,-83
3213.335016,-98
3213.336035,-100
3213.337049,-91
3213.338047,-94
3213.339049,-120
3213.340041,-149
3213.34106,-164
3213.342048,-139
3213.343027,-82
3213.34405,-36
3213.345028,1
3213.346044,31
3213.347022,40
3213.348127,25
3213.349031,10
3213.350022,1
3213.351036,-21
3213.352034,-69
3213.353055,-125
3213.354064,-164
3213.355056,-189
3213.356051,-189
3213.357046,-168
3213.358082,-139
3213.359054,-109
3213.360064,-69
3213.361047,-45
3213.362047,-37
3213.36304,-27
3213.364055,-13
3213.365026,-9
3213.366023,-55
3213.367035,-105
3213.36806,-136
3213.369028,-154
3213.370028,-165
3213.371051,-165
3213.372064,-176
3213.373044,-186
3213.37406,-157
3213.375061,-109
3213.37605,-78
3213.377048,-66
3213.378099,-50
3213.379279,-24
3213.380043,8
3213.381058,23
3213.382048,25
3213.383027,16
3213.384037,-11
3213.385027,-36
3213.386044,-56
3213.387028,-75
3213.388051,-98
3213.389064,-128
3213.390091,-157
3213.391057,-166
3213.392084,-133
3213.393067,-85
3213.394041,-74
3213.395036,-76
3213.39606,-62
3213.397035,-42
3213.398043,-21
3213.399062,13
3213.400036,23
3213.401036,-9
3213.402028,-46
3213.403061,-66
3213.404026,-95
3213.405077,-131
3213.406065,-142
3213.407074,-145
3213.408053,-142
3213.40907,-130
3213.410055,-104
3213.411059,-69
3213.412056,-24
3213.413074,29
3213.414078,74
3213.415034,93
3213.416036,65
3213.417067,-3
3213.418042,-63
3213.419058,-99
3213.420058,-119
3213.421034,-134
3213.422031,-140
3213.423124,-135
3213.424081,-127
3213.425066,-100
3213.426059,-43
3213.427039,26
3213.42808,71
3213.429098,93
3213.430042,95
3213.431081,78
3213.432051,36
3213.433051,11
3213.434043,7
3213.435076,3
3213.436057,-3
3213.437064,-13
3213.438102,-28
3213.439085,-28
3213.440087,-41
3213.441153,-59
3213.442087,-57
3213.443076,-37
3213.44408,7
3213.44509,51
3213.446053,81
3213.447057,87
3213.448056,80
3213.449062,53
3213.450055,18
3213.451061,-10
3213.452052,-40
3213.453079,-73
3213.454069,-93
3213.45505,-96
3213.456099,-94
3213.457086,-82
3213.458111,-53
3213.459105,-10
3213.460076,32
3213.461072,50
3213.462058,44
3213.463047,38
3213.464047,38
3213.46506,34
3213.466054,33
3213.46705,-5
3213.468048,-63
3213.469063,-118
3213.470132,-156
3213.471042,-173
3213.472061,-171
3213.473095,-165
3213.474108,-170
3213.475085,-181
3213.476079,-156
3213.477074,-92
3213.478085,-15
3213.479081,60
3213.480069,98
3213.481072,94
3213.482079,62
3213.483058,19
3213.484069,-38
3213.485032,-90
3213.486062,-127
3213.487039,-163
3213.488042,-204
3213.489068,-228
3213.490085,-212
3213.491136,-169
3213.492141,-129
3213.493106,-102
3213.494083,-84
3213.495107,-59
3213.496089,-26
3213.497059,8
3213.49806,32
3213.499059,25
3213.500073,-24
3213.501046,-84
3213.502111,-125
3213.503078,-137
3213.504053,-123
3213.505058,-98
3213.506114,-87
3213.507093,-86
3213.50811,-87
3213.509075,-97
3213.510093,-113
3213.511091,-103
3213.512075,-61
3213.513082,-14
3213.514072,8
3213.515081,-2
3213.516081,-16
3213.517042,-41
3213.518028,-68
3213.519076,-90
3213.52008,-88
3213.521052,-75
3213.522048,-71
3213.523077,-59
3213.524076,-42
3213.525082,-35
3213.526072,-16
3213.527087,16
3213.528078,39
3213.529083,46
3213.530074,26
3213.531073,14
3213.532074,10
3213.533084,-16
3213.534086,-52
3213.535082,-85
3213.536082,-103
3213.53706,-91
3213.53806,-56
3213.539065,-45
3213.540091,-44
3213.541078,-7
3213.542097,64
3213.543098,147
3213.544104,216
3213.545074,265
3213.546085,296
3213.547091,301
3213.548081,300
3213.549089,304
3213.550089,281
3213.551092,240
3213.552078,212
3213.553114,197
3213.554075,189
3213.555063,178
3213.556097,165
3213.557047,158
3213.558099,162
3213.559088,170
3213.560152,162
3213.561109,152
3213.562095,137
3213.563091,100
3213.56412,52
3213.565071,-14
3213.566068,-86
3213.567089,-154
3213.568088,-210
3213.569072,-267
3213.570083,-307
3213.571099,-310
3213.572096,-295
3213.573081,-294
3213.574062,-285
3213.575087,-254
3213.576092,-217
3213.5771,-188
3213.578094,-161
3213.579092,-121
3213.580119,-86
3213.581104,-62
3213.582087,-56
3213.583092,-77
3213.584132,-104
3213.585089,-124
3213.586094,-148
3213.587096,-158
3213.588066,-142
3213.589074,-123
3213.590091,-106
3213.591104,-75
3213.592111,-23
3213.593099,31
3213.594127,77
3213.595149,120
3213.596108,147
3213.597095,154
3213.598121,138
3213.599094,105
3213.600082,66
3213.601091,12
3213.6021,-41
3213.603087,-66
3213.604089,-81
3213.605068,-104
3213.606116,-114
3213.607089,-89
3213.608154,-40
3213.609133,13
3213.610103,64
3213.61132,116
3213.612321,154
3213.613322,159
3213.614326,132
3213.61531,98
3213.616321,50
3213.617323,-6
3213.61832,-32
3213.619304,-10
3213.620338,13
3213.621295,-9
3213.62229,-32
3213.623306,-63
3213.624295,-95
3213.625308,-91
3213.626344,-57
3213.627365,-19
3213.628304,-5
3213.629312,10
3213.6303,36
3213.63127,57
3213.632287,46
3213.633289,14
3213.634272,-36
3213.635289,-83
3213.636326,-102
3213.637293,-99
3213.638309,-79
3213.639289,-64
3213.640285,-64
3213.641287,-62
3213.642288,-35
3213.64325,7
3213.644316,45
3213.645276,77
3213.64629,108
3213.647279,126
3213.648252,111
3213.649315,81
3213.650262,51
3213.651242,32
3213.652244,11
3213.653255,-21
3213.654232,-45
3213.655237,-55
3213.656288,-67
3213.657255,-69
3213.658277,-48
3213.6593,-15
3213.660262,9
3213.661308,21
3213.66224,33
3213.663276,47
3213.664238,75
3213.665235,91
3213.666225,68
3213.667227,13
3213.668221,-31
3213.669222,-19
3213.670233,23
3213.671218,27
3213.67222,10
3213.673215,-3
3213.674246,2
3213.675209,9
3213.67621,22
3213.677196,25
3213.678214,39
3213.679209,75
3213.680201,112
3213.681238,130
3213.682188,146
3213.683195,143
3213.684223,103
3213.685193,57
3213.68619,27
3213.687198,14
3213.688168,12
3213.689178,15
3213.690239,14
3213.691327,23
3213.692852,53
3213.693292,91
3213.694172,118
3213.695259,136
3213.696188,130
3213.697189,111
3213.698187,87
3213.699153,73
3213.700185,57
3213.701178,11
3213.70216,-41
3213.703171,-63
3213.704164,-61
3213.705204,-52
3213.706131,-31
3213.707151,21
3213.708358,73
3213.709151,104
3213.710157,123
3213.711156,143
3213.712182,156
3213.713156,171
3213.714138,165
3213.715147,127
3213.716156,94
3213.717145,91
3213.71817,94
3213.719144,82
3213.72015,62
3213.721136,46
3213.722146,43
3213.72317,54
3213.724158,81
3213.725145,122
3213.726157,154
3213.727122,170
3213.728138,185
3213.729145,195
3213.730149,197
3213.731144,205
3213.732144,213
3213.733128,197
3213.73411,160
3213.735115,125
3213.736107,97
3213.7371,73
3213.738133,62
3213.739128,61
3213.740104,51
3213.741077,52
3213.742084,85
3213.743096,140
3213.744105,178
3213.74509,212
3213.74613,245
3213.747116,267
3213.748109,273
3213.749104,254
3213.750128,200
3213.751118,142
3213.752096,100
3213.75309,78
3213.754109,86
3213.755119,88
3213.756117,77
3213.757104,82
3213.758105,110
3213.759096,160
3213.760077,201
3213.761099,227
3213.762108,242
3213.763117,255
3213.764122,264
3213.765099,244
3213.766095,219
3213.767117,208
3213.768103,208
3213.769093,184
3213.77013,179
3213.771104,187
3213.772108,179
3213.773119,178
3213.774154,186
3213.775111,206
3213.776112,245
3213.777096,288
3213.778083,321
3213.779124,348
3213.780128,370
3213.781121,369
3213.782131,349
3213.783115,311
3213.784129,277
3213.785127,265
3213.786108,258
3213.787124,249
3213.788117,226
3213.789121,204
3213.790122,206
3213.791103,220
3213.792119,244
3213.793113,284
3213.794112,334
3213.795119,375
3213.796128,395
3213.79714,412
3213.79814,403
3213.79912,361
3213.80012,305
3213.801128,259
3213.802134,230
3213.803101,206
3213.804099,177
3213.805095,161
3213.806105,176
3213.807129,212
3213.808092,263
3213.809092,321
3213.810123,346
3213.811097,348
3213.81211,350
3213.813113,363
3213.814112,365
3213.815118,345
3213.816126,290
3213.817117,213
3213.818127,166
3213.819118,149
3213.820112,141
3213.821108,120
3213.822099,89
3213.823125,80
3213.824104,112
3213.8251,155
3213.826096,182
3213.827168,203
3213.828098,221
3213.829107,234
3213.830124,242
3213.831101,249
3213.83212,231
3213.833117,189
3213.834103,145
3213.83511,111
3213.836105,80
3213.837111,56
3213.838124,36
3213.839138,18
3213.840126,15
3213.841106,33
3213.842093,76
3213.843098,109
3213.844107,111
3213.845103,92
3213.846116,85
3213.847158,97
3213.84812,102
3213.849119,86
3213.850109,69
3213.851109,31
3213.85211,-33
3213.853132,-106
3213.854092,-154
3213.855138,-153
3213.856124,-123
3213.857125,-77
3213.858126,-37
3213.859108,-8
3213.860104,19
3213.861111,47
3213.862121,74
3213.863093,88
3213.86412,81
3213.86514,55
3213.866122,21
3213.867125,-29
3213.868114,-74
3213.869111,-91
3213.870109,-92
3213.871141,-107
3213.872128,-124
3213.873112,-122
3213.874119,-100
3213.875105,-61
3213.87612,-5
3213.877125,56
3213.878162,87
3213.879114,82
3213.880096,63
3213.881119,42
3213.882112,20
3213.883113,-16
3213.884126,-66
3213.885108,-114
3213.886115,-146
3213.887117,-157
3213.888114,-159
3213.889117,-152
3213.890098,-121
3213.891111,-74
3213.892122,-33
3213.89312,-13
3213.894105,5
3213.895106,21
3213.89611,42
3213.897082,63
3213.898137,55
3213.899139,19
3213.900112,-24
3213.901104,-75
3213.902124,-114
3213.903144,-127
3213.904115,-131
3213.905134,-136
3213.906127,-137
3213.907125,-122
3213.908133,-81
3213.909111,-30
3213.910127,-2
3213.911098,12
3213.912119,21
3213.913119,19
3213.914097,10
3213.915113,5
3213.916131,-14
3213.917113,-52
3213.918108,-101
3213.919119,-134
3213.92014,-134
3213.921139,-122
3213.922153,-106
3213.923146,-85
3213.924184,-67
3213.925125,-61
3213.926105,-66
3213.927124,-54
3213.928107,-40
3213.929109,-43
3213.930087,-43
3213.931101,-44
3213.932145,-47
3213.933109,-60
3213.934139,-81
3213.935137,-89
3213.936105,-75
3213.937132,-70
3213.938152,-83
3213.939104,-65
3213.940118,-35
3213.941115,-13
3213.94211,12
3213.943104,34
3213.944132,52
3213.945105,76
3213.946116,106
3213.947085,62
3213.948106,-23
3213.949131,-89
3213.950117,-137
3213.95113,-165
3213.952125,-174
3213.953111,-178
3213.954141,-173
3213.955114,-152
3213.956114,-132
3213.957111,-120
3213.958113,-105
3213.959115,-88
3213.960133,-67
3213.961125,-34
3213.962101,5
3213.96312,31
3213.964102,50
3213.965111,52
3213.966131,24
3213.967117,-19
3213.968117,-44
3213.969118,-59
3213.970119,-75
3213.971119,-108
3213.972117,-139
3213.97313,-141
3213.974115,-118
3213.975101,-91
3213.976135,-74
3213.977125,-67
3213.978122,-49
3213.979108,-10
3213.980105,35
3213.981103,44
3213.982103,23
3213.983122,-16
3213.984127,-73
3213.985134,-117
3213.986112,-138
3213.987127,-143
3213.988157,-138
3213.989129,-134
3213.990213,-131
3213.991126,-113
3213.992106,-75
3213.993126,-37
3213.994185,-2
3213.995083,36
3213.99611,58
3213.997104,54
3213.998089,37
3213.999091,27
3214.000136,3
3214.001188,-30
3214.002128,-42
3214.003125,-55
3214.004198,-96
3214.00514,-143
3214.006104,-139
3214.007118,-107
3214.00814,-88
3214.009105,-57
3214.010106,-21
3214.011139,-2
3214.012109,32
3214.013129,80
3214.014102,110
3214.015095,96
3214.016104,29
3214.017114,-62
3214.018119,-127
3214.019119,-165
3214.020092,-173
3214.021126,-173
3214.022129,-165
3214.023123,-149
3214.024137,-123
3214.02514,-78
3214.026101,-36
3214.027113,-14
3214.028132,-4
3214.029107,16
3214.030111,25
3214.031101,10
3214.032104,-10
3214.033089,-28
3214.034123,-51
3214.035128,-71
3214.036155,-99
3214.037118,-116
3214.038113,-122
3214.039136,-132
3214.040121,-129
3214.041121,-110
3214.042143,-74
3214.043178,-43
3214.044102,-31
3214.045114,-31
3214.046162,-33
3214.047097,-35
3214.048124,-28
3214.049105,-31
3214.050106,-63
3214.051114,-97
3214.052141,-111
3214.053121,-111
3214.054127,-132
3214.055154,-161
3214.056143,-177
3214.057118,-177
3214.058128,-148
3214.05911,-112
3214.0601,-87
3214.061101,-51
3214.062097,-38
3214.063098,-42
3214.06409,-54
3214.065096,-74
3214.066093,-83
3214.067101,-91
3214.068137,-120
3214.069127,-160
3214.07011,-187
3214.071131,-198
3214.072129,-191
3214.073126,-157
3214.074129,-115
3214.075139,-77
3214.076111,-59
3214.077102,-43
3214.078108,-9
3214.079096,16
3214.080098,15
3214.081091,3
3214.082117,-23
3214.083095,-65
3214.084083,-89
3214.085127,-87
3214.086132,-82
3214.087139,-96
3214.088156,-118
3214.089118,-130
3214.0901,-142
3214.09111,-156
3214.092119,-131
3214.093105,-81
3214.094114,-33
3214.095099,-5
3214.0961,-6
3214.097086,-23
3214.098094,-39
3214.099088,-55
3214.100921,-62
3214.101232,-62
3214.102136,-82
3214.103134,-106
3214.104141,-140
3214.105112,-188
3214.106123,-216
3214.107105,-217
3214.108113,-201
3214.10911,-158
3214.110104,-110
3214.111137,-75
3214.11212,-48
3214.113137,-18
3214.114121,7
3214.115134,8
3214.116105,-24
3214.117102,-83
3214.118099,-135
3214.119151,-162
3214.120165,-185
3214.121122,-210
3214.122134,-224
3214.123117,-221
3214.124124,-192
3214.12514,-148
3214.126148,-103
3214.127182,-60
3214.128127,-28
3214.129112,-4
3214.13019,8
3214.131115,-5
3214.132111,-43
3214.133093,-106
3214.134118,-160
3214.135092,-171
3214.136167,-153
3214.137149,-146
3214.138135,-175
3214.139105,-204
3214.140125,-197
3214.141115,-155
3214.142123,-103
3214.143123,-70
3214.144155,-52
3214.145123,-45
3214.146549,-56
3214.147254,-78
3214.148079,-97
3214.149119,-115
3214.150121,-132
3214.151104,-127
3214.15209,-105
3214.153126,-103
3214.154123,-141
3214.155118,-170
3214.156112,-170
3214.157128,-144
3214.158212,-107
3214.159113,-65
3214.160237,-39
3214.161586,-24
3214.162843,9
3214.163125,40
3214.164127,34
3214.165108,2
3214.166101,-27
3214.167135,-50
3214.168125,-78
3214.169181,-111
3214.170168,-133
3214.171145,-142
3214.172127,-138
3214.173148,-131
3214.174123,-144
3214.175143,-152
3214.176103,-152
3214.177088,-154
3214.178134,-140
3214.179102,-116
3214.180084,-90
3214.18113,-69
3214.182127,-56
3214.183114,-67
3214.184149,-87
3214.185113,-106
3214.186122,-112
3214.18715,-103
3214.188169,-93
3214.18913,-87
3214.190175,-90
3214.191176,-97
3214.192143,-95
3214.193152,-93
3214.194152,-89
3214.195097,-86
3214.196145,-88
3214.197111,-71
3214.19811,-34
3214.199115,-22
3214.200102,-38
3214.201117,-66
3214.202202,-86
3214.203132,-92
3214.204153,-107
3214.205133,-140
3214.206164,-173
3214.207117,-185
3214.208145,-174
3214.209126,-137
3214.210133,-74
3214.211124,-6
3214.212135,51
3214.213134,77
3214.214133,82
3214.215147,84
3214.216168,82
3214.217099,60
3214.218115,26
3214.219088,-10
3214.220104,-37
3214.221127,-50
3214.222117,-49
3214.223129,-34
3214.224145,-23
3214.225146,-7
3214.226116,32
3214.227112,63
3214.22812,87
3214.229106,104
3214.230092,103
3214.231116,88
3214.23212,60
3214.233121,18
3214.234103,-36
3214.235098,-82
3214.236136,-104
3214.237077,-109
3214.238116,-100
3214.239137,-93
3214.240138,-76
3214.241141,-33
3214.242145,25
3214.243121,61
3214.244132,83
3214.245109,97
3214.246108,107
3214.247097,108
3214.248118,95
3214.249096,72
3214.250084,36
3214.251113,-10
3214.252091,-54
3214.253076,-87
3214.254097,-120
3214.255128,-152
3214.256127,-152
3214.257123,-125
3214.258122,-86
3214.259121,-49
3214.260117,-18
3214.261124,3
3214.262136,9
3214.263113,6
3214.264117,-9
3214.265146,-41
3214.266126,-71
3214.267104,-79
3214.268098,-80
3214.269093,-97
3214.270089,-134
3214.271081,-162
3214.27215,-165
3214.273142,-160
3214.274125,-145
3214.275096,-116
3214.276105,-81
3214.277108,-46
3214.278103,2
3214.27913,48
3214.28011,84
3214.281136,100
3214.282137,75
3214.283118,28
3214.284107,-48
3214.285093,-102
3214.286123,-121
3214.287091,-123
3214.288089,-132
3214.289105,-145
3214.290117,-151
3214.291127,-139
3214.292099,-100
3214.293114,-56
3214.294092,-18
3214.295089,6
3214.296076,6
3214.297113,10
3214.298074,7
3214.299093,-21
3214.300068,-44
3214.301077,-58
3214.302063,-70
3214.303081,-87
3214.304085,-106
3214.305088,-120
3214.306096,-131
3214.307095,-141
3214.308107,-135
3214.309099,-95
3214.310087,-34
3214.311105,31
3214.312144,80
3214.31311,101
3214.314079,106
3214.315085,92
3214.316094,65
3214.317084,24
3214.318137,-17
3214.319087,-49
3214.320073,-80
3214.321082,-98
3214.32207,-93
3214.323101,-83
3214.324125,-58
3214.325098,-15
3214.326099,40
3214.327121,93
3214.328107,152
3214.329113,198
3214.330086,223
3214.33108,235
3214.332079,229
3214.333103,219
3214.334093,209
3214.335081,204
3214.336113,187
3214.337084,176
3214.338072,185
3214.339134,215
3214.34019,240
3214.34114,244
3214.342103,264
3214.343096,294
3214.344074,326
3214.345206,367
3214.346122,392
3214.347122,371
3214.348115,312
3214.349086,238
3214.350111,147
3214.351084,56
3214.352082,-18
3214.353068,-77
3214.354085,-154
3214.355065,-228
3214.356046,-267
3214.357126,-252
3214.358118,-212
3214.359103,-178
3214.3601,-145
3214.361078,-123
3214.362097,-102
3214.363093,-70
3214.364098,-48
3214.365077,-35
3214.366068,-31
3214.36706,-42
3214.368077,-59
3214.369072,-81
3214.370121,-106
3214.371066,-127
3214.372084,-134
3214.373064,-113
3214.374107,-70
3214.37509,-31
3214.37609,20
3214.377072,72
3214.378078,108
3214.379098,127
3214.380083,120
3214.381082,106
3214.382062,97
3214.383065,59
3214.38406,-6
3214.385082,-71
3214.386079,-112
3214.387067,-120
3214.388093,-111
3214.389118,-104
3214.391192,-86
3214.391762,-55
3214.392109,-9
3214.393175,30
3214.394069,63
3214.395319,89
3214.396335,112
3214.397315,113
3214.398321,93
3214.399284,69
3214.400282,31
3214.401308,-14
3214.402317,-60
3214.40333,-91
3214.404329,-83
3214.405314,-62
3214.406303,-48
3214.407264,-36
3214.408284,-18
3214.40928,-3
3214.410299,3
3214.411295,12
3214.412284,25
3214.413289,39
3214.414276,50
3214.41528,55
3214.416251,50
3214.417274,25
3214.418258,-8
3214.419296,-38
3214.420261,-65
3214.421277,-77
3214.42225,-79
3214.42325,-53
3214.424263,6
3214.425246,60
3214.426273,95
3214.427241,117
3214.42825,129
3214.429263,132
3214.430264,133
3214.431229,131
3214.432238,117
3214.43324,80
3214.43421,48
3214.43523,11
3214.436249,-55
3214.437223,-137
3214.43823,-168
3214.439199,-146
3214.440222,-109
3214.441245,-72
3214.442208,-32
3214.443242,26
3214.444236,71
3214.445216,106
3214.446213,141
3214.447185,163
3214.44819,148
3214.449202,122
3214.450203,79
3214.451188,36
3214.452184,8
3214.453194,-16
3214.454192,-36
3214.45521,-44
3214.456181,-49
3214.457172,-59
3214.458199,-43
3214.459185,-14
3214.460215,11
3214.461183,39
3214.462179,78
3214.463169,110
3214.464183,123
3214.465172,116
3214.466168,102
3214.467171,82
3214.468181,34
3214.469171,-12
3214.470163,-33
3214.47114,-42
3214.472185,-51
3214.473163,-40
3214.474165,-12
3214.475151,19
3214.476144,46
3214.47714,73
3214.478141,96
3214.479168,123
3214.480137,154
3214.481148,162
3214.482153,131
3214.483163,81
3214.484127,50
3214.485148,28
3214.486148,3
3214.487132,-26
3214.488125,-42
3214.489142,-51
3214.490116,-45
3214.491133,-8
3214.492115,63
3214.493136,123
3214.494113,164
3214.495105,194
3214.496124,202
3214.497103,197
3214.498121,187
3214.49913,167
3214.50013,130
3214.501116,95
3214.502097,66
3214.503113,39
3214.504112,3
3214.50509,-15
3214.506076,2
3214.507088,49
3214.508111,108
3214.509105,176
3214.510097,227
3214.51108,233
3214.512089,216
3214.513072,207
3214.514103,195
3214.515092,168
3214.516072,103
3214.517076,34
3214.518061,-5
3214.519087,-10
3214.520096,18
3214.521075,54
3214.522077,68
3214.523066,75
3214.524077,102
3214.52507,151
3214.526045,195
3214.527054,211
3214.52809,198
3214.529092,175
3214.530078,167
3214.531089,167
3214.532069,161
3214.533054,145
3214.534056,131
3214.535089,127
3214.536087,127
3214.537078,117
3214.53807,76
3214.539079,43
3214.540031,46
3214.541056,85
3214.542068,145
3214.543065,208
3214.54407,254
3214.545059,287
3214.546109,307
3214.547096,317
3214.548076,321
3214.549089,316
3214.550085,305
3214.551082,276
3214.552083,232
3214.553076,186
3214.554082,144
3214.555071,129
3214.55607,125
3214.557085,135
3214.558068,166
3214.559058,200
3214.560063,227
3214.561049,252
3214.562058,270
3214.56309,289
3214.564097,308
3214.565086,298
3214.566089,268
3214.567189,231
3214.568075,204
3214.569073,188
3214.570084,179
3214.571052,188
3214.572055,211
3214.573051,238
3214.574082,264
3214.575068,284
3214.576085,304
3214.577078,329
3214.578087,368
3214.579068,407
3214.580099,420
3214.581088,405
3214.582088,374
3214.583081,336
3214.584082,293
3214.585081,260
3214.58607,232
3214.587092,213
3214.588072,211
3214.589066,213
3214.59011,235
3214.591087,263
3214.592088,283
3214.593073,304
3214.594094,308
3214.595068,304
3214.596076,321
3214.597084,341
3214.598095,341
3214.599079,316
3214.600079,278
3214.601083,243
3214.602088,201
3214.603077,171
3214.604077,150
3214.605088,130
3214.606077,123
3214.607071,134
3214.608109,166
3214.609064,178
3214.610093,170
3214.611065,180
3214.612062,206
3214.613066,231
3214.614082,237
3214.615065,230
3214.616098,192
3214.617079,142
3214.618107,100
3214.619078,65
3214.620104,32
3214.6211,10
3214.622047,1
3214.623094,21
3214.624071,68
3214.625069,116
3214.626072,125
3214.627075,104
3214.628124,100
3214.629079,112
3214.630068,100
3214.63108,65
3214.632075,32
3214.633085,8
3214.63409,-10
3214.635076,-23
3214.636084,-45
3214.637081,-67
3214.638084,-86
3214.639083,-89
3214.640084,-81
3214.641069,-68
3214.64208,-41
3214.643061,1
3214.64406,49
3214.645066,87
3214.646133,105
3214.647041,104
3214.648094,69
3214.649087,1
3214.65009,-77
3214.651078,-113
3214.652082,-120
3214.653091,-120
3214.654084,-109
3214.655074,-107
3214.656074,-123
3214.657091,-124
3214.658083,-100
3214.659055,-53
3214.660068,9
3214.661064,62
3214.662046,91
3214.663039,93
3214.664041,78
3214.6651,71
3214.666103,47
3214.667102,-28
3214.66808,-80
3214.669081,-96
3214.670109,-107
3214.671072,-134
3214.672079,-156
3214.673069,-169
3214.674101,-157
3214.675117,-117
3214.676066,-74
3214.677059,-55
3214.678071,-63
3214.67906,-67
3214.680037,-61
3214.681063,-54
3214.682078,-58
3214.683084,-77
3214.684083,-94
3214.685083,-97
3214.686103,-102
3214.687131,-127
3214.688114,-155
3214.689055,-143
3214.690106,-124
3214.691083,-135
3214.692093,-144
3214.693059,-128
3214.694064,-95
3214.695059,-48
3214.696054,-7
3214.697049,3
3214.698057,-2
3214.699091,-7
3214.700097,-36
3214.701084,-74
3214.702089,-100
3214.703752,-122
3214.704111,-146
3214.705061,-153
3214.706078,-152
3214.707076,-137
3214.708062,-99
3214.709076,-60
3214.710071,-32
3214.711073,6
3214.712069,36
3214.713075,29
3214.714075,-9
3214.715058,-30
3214.716082,-54
3214.717089,-96
3214.718076,-144
3214.71907,-184
3214.720084,-201
3214.721074,-205
3214.722067,-196
3214.723094,-176
3214.724102,-142
3214.725071,-104
3214.726086,-88
3214.727081,-73
3214.728046,-33
3214.729085,29
3214.730073,69
3214.731045,59
3214.732048,23
3214.733089,-29
3214.734096,-83
3214.735084,-124
3214.736099,-149
3214.737094,-170
3214.738069,-185
3214.739083,-191
3214.740083,-184
3214.741074,-145
3214.74211,-86
3214.743108,-37
3214.744055,-9
3214.745091,17
3214.74608,39
3214.747076,35
3214.748063,21
3214.749089,-6
3214.750108,-53
3214.751092,-106
3214.752086,-149
3214.75309,-158
3214.754083,-143
3214.755142,-126
3214.756089,-118
3214.757092,-106
3214.758091,-83
3214.759193,-61
3214.760099,-37
3214.761092,-27
3214.762069,-25
3214.763056,-21
3214.764061,-24
3214.765063,-50
3214.766062,-69
3214.767116,-87
3214.768108,-93
3214.769101,-96
3214.770126,-90
3214.7711,-95
3214.772089,-131
3214.773082,-156
3214.774095,-156
3214.775093,-123
3214.776078,-68
3214.777089,-29
3214.778077,-10
3214.779075,21
3214.780065,41
3214.781054,38
3214.782063,11
3214.783075,-35
3214.784099,-83
3214.785103,-111
3214.786099,-115
3214.787096,-114
3214.788111,-108
3214.789083,-109
3214.790067,-101
3214.791083,-83
3214.792068,-73
3214.793083,-72
3214.794075,-63
3214.795116,-37
3214.796085,-13
3214.79709,-4
3214.798067,-20
3214.799073,-45
3214.800065,-72
3214.80111,-91
3214.802123,-100
3214.8031,-106
3214.804078,-122
3214.80511,-146
3214.806108,-158
3214.807119,-141
3214.808107,-112
3214.809097,-80
3214.81008,-37
3214.81109,11
3214.812087,39
3214.813069,51
3214.814075,61
3214.815065,55
3214.81606,28
3214.817074,-25
3214.818107,-88
3214.819108,-134
3214.820115,-145
3214.821107,-136
3214.822087,-129
3214.823098,-126
3214.824113,-121
3214.825095,-114
3214.826109,-103
3214.827128,-71
3214.828081,-43
3214.829087,-26
3214.830077,-10
3214.83112,-3
3214.832094,-11
3214.833101,-33
3214.834063,-73
3214.835114,-111
3214.836111,-128
3214.837091,-122
3214.83809,-92
3214.839093,-64
3214.840104,-66
3214.841087,-84
3214.84209,-77
3214.84308,-58
3214.844077,-60
3214.84508,-69
3214.846073,-62
3214.847104,-45
3214.84812,-32
3214.849087,-34
3214.850097,-39
3214.851101,-30
3214.852122,-29
3214.853093,-48
3214.854101,-78
3214.855088,-100
3214.856084,-97
3214.857077,-87
3214.858127,-73
3214.859107,-41
3214.860088,-2
3214.861112,30
3214.862105,50
3214.863083,52
3214.864099,35
3214.865105,-7
3214.866082,-63
3214.867089,-105
3214.868096,-121
3214.869113,-137
3214.870133,-157
3214.871113,-171
3214.872125,-185
3214.8731,-180
3214.874107,-142
3214.875096,-85
3214.876095,-48
3214.877098,-34
3214.878103,-9
3214.879091,27
3214.880077,48
3214.881082,47
3214.882088,40
3214.883074,27
3214.884069,5
3214.885085,-24
3214.886108,-59
3214.887104,-92
3214.888111,-105
3214.889116,-105
3214.890127,-106
3214.891098,-92
3214.892097,-69
3214.893107,-68
3214.894101,-56
3214.895084,-20
3214.896077,16
3214.897093,28
3214.898079,30
3214.899071,26
3214.900067,13
3214.901061,-11
3214.902077,-51
3214.903151,-88
3214.904104,-111
3214.90511,-137
3214.906105,-159
3214.907127,-155
3214.908106,-121
3214.909096,-83
3214.910105,-44
3214.911085,-4
3214.912079,28
3214.913107,37
3214.91409,19
3214.915066,9
3214.916079,16
3214.917076,22
3214.918062,-3
3214.919063,-40
3214.920125,-72
3214.921101,-88
3214.922103,-102
3214.92307,-123
3214.924236,-140
3214.925122,-130
3214.926095,-93
3214.927089,-47
3214.92808,9
3214.929117,44
3214.930071,45
3214.931085,18
3214.932083,6
3214.933068,-9
3214.934081,-30
3214.935114,-44
3214.936084,-50
3214.9371,-66
3214.938096,-85
3214.939085,-99
3214.940085,-118
3214.941085,-127
3214.942087,-102
3214.943079,-76
3214.94408,-69
3214.945093,-53
3214.946065,-15
3214.947081,34
3214.948069,59
3214.94907,51
3214.950067,22
3214.951071,-15
3214.952061,-63
3214.953086,-114
3214.954103,-150
3214.955088,-170
3214.95609,-190
3214.957095,-188
3214.958089,-143
3214.959075,-71
3214.960087,-20
3214.961098,19
3214.962097,56
3214.963076,82
3214.964072,78
3214.965099,53
3214.966077,20
3214.967106,-21
3214.96807,-48
3214.969072,-71
3214.970099,-82
3214.971102,-90
3214.972116,-99
3214.973087,-92
3214.974121,-65
3214.975079,-42
3214.976101,-36
3214.977092,-18
3214.978093,20
3214.979105,65
3214.980062,79
3214.981088,62
3214.982081,17
3214.983063,-36
3214.98408,-73
3214.985061,-88
3214.986063,-81
3214.987077,-56
3214.988144,-31
3214.989102,-42
3214.99012,-83
3214.991092,-112
3214.992084,-123
3214.993152,-108
3214.994076,-51
3214.995103,12
3214.996087,46
3214.997069,56
3214.998079,60
3214.999077,63
3215.000079,40
3215.001056,-11
3215.002058,-63
3215.00306,-110
3215.004084,-156
3215.0051,-187
3215.006104,-184
3215.007137,-159
3215.008187,-122
3215.0091,-80
3215.010091,-37
3215.011099,7
3215.012059,36
3215.013079,50
3215.014074,57
3215.015069,44
3215.01607,8
3215.017084,-30
3215.018048,-61
3215.019074,-80
3215.02009,-92
3215.021055,-101
3215.022086,-108
3215.023083,-94
3215.024085,-72
3215.025083,-43
3215.02609,-11
3215.027086,20
3215.028086,46
3215.029132,48
3215.030087,34
3215.031088,6
3215.032077,-26
3215.033082,-48
3215.034081,-47
3215.03507,-40
3215.036087,-48
3215.037084,-58
3215.038081,-79
3215.039101,-101
3215.040105,-101
3215.041098,-77
3215.042114,-41
3215.043118,3
3215.044091,48
3215.045079,75
3215.046092,74
3215.047078,63
3215.048092,53
3215.049072,33
3215.050065,-21
3215.051074,-68
3215.052083,-90
3215.053076,-89
3215.054087,-109
3215.055081,-136
3215.056092,-150
3215.057094,-135
3215.058083,-89
3215.059086,-33
3215.060095,30
3215.061078,91
3215.062077,148
3215.063054,173
3215.06406,151
3215.065059,107
3215.06606,46
3215.067059,-19
3215.068059,-80
3215.06919,-121
3215.070074,-126
3215.071054,-113
3215.072066,-115
3215.073085,-100
3215.074143,-65
3215.075076,-21
3215.076059,-2
3215.077087,11
3215.078087,31
3215.079124,66
3215.080064,97
3215.081066,104
3215.082059,87
3215.083049,71
3215.084074,57
3215.085066,32
3215.08604,18
3215.087065,-2
3215.088061,-29
3215.089064,-43
3215.090092,-44
3215.091081,-34
3215.092076,-6
3215.093079,35
3215.094627,88
3215.09509,140
3215.096063,157
3215.097058,142
3215.098054,119
3215.099054,103
3215.100065,74
3215.101061,42
3215.102058,24
3215.103064,10
3215.104057,-8
3215.105052,-35
3215.106048,-55
3215.107404,-40
3215.108867,8
3215.109088,49
3215.11008,77
3215.111076,99
3215.11207,113
3215.113101,111
3215.114118,109
3215.115074,114
3215.116073,101
3215.117079,66
3215.118106,13
3215.119109,-37
3215.120094,-64
3215.121058,-74
3215.122083,-55
3215.123059,-22
3215.124126,6
3215.125083,32
3215.126081,56
3215.127081,82
3215.128065,109
3215.12913,111
3215.130087,100
3215.131073,84
3215.132063,54
3215.133084,18
3215.134061,-21
3215.135067,-57
3215.136078,-86
3215.137054,-112
3215.138068,-126
3215.139062,-131
3215.140093,-135
3215.141082,-127
3215.142101,-89
3215.143071,-27
3215.144098,19
3215.145091,41
3215.146077,59
3215.147084,70
3215.148072,41
3215.149048,13
3215.15005,-6
3215.151077,-31
3215.152053,-62
3215.153172,-97
3215.154541,-122
3215.155686,-130
3215.156033,-118
3215.157043,-99
3215.158096,-80
3215.159079,-34
3215.160082,18
3215.161092,57
3215.162069,90
3215.163064,126
3215.164062,148
3215.165073,128
3215.166086,77
3215.167041,14
3215.168056,-45
3215.169059,-99
3215.170084,-148
3215.171608,-178
3215.17219,-177
3215.173568,-150
3215.174076,-96
3215.175098,-31
3215.176093,2
3215.177066,7
3215.178087,8
3215.179097,34
3215.180068,57
3215.181059,44
3215.182061,15
3215.183064,-15
3215.184069,-35
3215.185044,-50
3215.186046,-59
3215.187053,-68
3215.188057,-78
3215.189031,-90
3215.190058,-77
3215.191102,-34
3215.192115,19
3215.193069,64
3215.194075,97
3215.195075,117
3215.196079,131
3215.197069,143
3215.198069,136
3215.199048,117
3215.200117,81
3215.201038,39
3215.202034,22
3215.203062,46
3215.204112,89
3215.205035,117
3215.206072,121
3215.207053,127
3215.208071,158
3215.209082,208
3215.210072,269
3215.211081,329
3215.212089,372
3215.213115,399
3215.214066,402
3215.215085,406
3215.216061,405
3215.217053,358
3215.218055,290
3215.219075,246
3215.220078,223
3215.221066,217
3215.222069,226
3215.223027,237
3215.224038,232
3215.225084,214
3215.226082,187
3215.227066,150
3215.228076,110
3215.229071,95
3215.230078,90
3215.231063,74
3215.23205,48
3215.233051,15
3215.23407,-23
3215.235059,-69
3215.236056,-111
3215.237056,-117
3215.238053,-99
3215.239055,-79
3215.240065,-54
3215.241063,-10
3215.242094,57
3215.243084,84
3215.244068,87
3215.24508,96
3215.246074,100
3215.247121,80
3215.248078,44
3215.249077,11
3215.250057,-20
3215.251067,-43
3215.252049,-66
3215.253074,-87
3215.254136,-97
3215.255075,-87
3215.256062,-64
3215.257064,-35
3215.258322,-5
3215.259298,24
3215.260302,47
3215.261311,67
3215.262314,81
3215.263292,82
3215.264295,75
3215.265316,69
3215.266297,56
3215.267291,29
3215.2683,-6
3215.269297,-30
3215.270325,-47
3215.271296,-70
3215.272282,-94
3215.273298,-104
3215.274305,-95
3215.275274,-52
3215.276293,2
3215.277274,44
3215.278267,85
3215.27927,119
3215.280271,140
3215.281274,132
3215.28227,99
3215.283256,56
3215.284303,14
3215.285263,-31
3215.286264,-71
3215.28737,-97
3215.288242,-101
3215.289256,-89
3215.290276,-67
3215.291278,-51
3215.292251,-41
3215.293271,-10
3215.294252,39
3215.295256,85
3215.296265,120
3215.297252,139
3215.298244,147
3215.299242,138
3215.300229,94
3215.30124,47
3215.302244,25
3215.303227,14
3215.304246,13
3215.305262,29
3215.306288,45
3215.307244,37
3215.308237,15
3215.309223,9
3215.310205,22
3215.311221,47
3215.312221,86
3215.313234,129
3215.314204,158
3215.315209,143
3215.316202,86
3215.317211,19
3215.318201,-20
3215.319186,-17
3215.320197,-8
3215.321221,-16
3215.322192,-36
3215.323195,-30
3215.324225,20
3215.32519,63
3215.326233,63
3215.327191,68
3215.328197,58
3215.329188,55
3215.33016,67
3215.331175,81
3215.33218,75
3215.333271,27
3215.33417,-16
3215.335174,-33
3215.336178,-35
3215.337148,-40
3215.338159,-48
3215.339171,-51
3215.340174,-37
3215.341166,-15
3215.342185,10
3215.343134,38
3215.344205,81
3215.345151,128
3215.346154,165
3215.347149,171
3215.348158,153
3215.34915,130
3215.350157,101
3215.351141,67
3215.352148,33
3215.353137,9
3215.354188,-12
3215.355389,-10
3215.356148,8
3215.357141,-8
3215.358136,-18
3215.359127,-8
3215.360129,30
3215.36112,80
3215.362115,111
3215.363124,119
3215.36411,136
3215.365106,156
3215.36611,131
3215.367191,81
3215.368137,51
3215.369135,35
3215.370199,9
3215.371115,-7
3215.372122,-6
3215.373113,8
3215.374117,35
3215.37512,81
3215.376109,127
3215.377098,152
3215.37814,168
3215.379122,170
3215.38011,157
3215.381137,153
3215.382076,140
3215.38309,104
3215.384104,71
3215.38509,42
3215.386081,23
3215.387176,14
3215.388081,-8
3215.389072,-28
3215.390392,15
3215.391078,112
3215.392065,187
3215.393056,211
3215.394058,207
3215.395022,207
3215.396057,210
3215.397056,206
3215.398065,174
3215.399059,130
3215.400056,101
3215.40109,86
3215.40213,65
3215.403125,42
3215.404779,27
3215.405125,12
3215.406908,1
3215.407099,20
3215.408063,46
3215.409061,77
3215.410068,129
3215.411061,185
3215.412041,235
3215.413038,242
3215.414039,230
3215.415042,227
3215.416046,221
3215.417021,213
3215.418091,202
3215.41911,178
3215.420099,135
3215.421077,91
3215.422068,71
3215.423052,83
3215.424097,118
3215.425082,158
3215.426069,188
3215.427059,211
3215.428055,239
3215.429052,279
3215.430048,293
3215.431036,278
3215.432043,254
3215.433047,232
3215.434039,222
3215.435075,202
3215.436069,174
3215.437073,140
3215.438074,116
3215.439063,112
3215.440046,134
3215.441058,176
3215.442059,213
3215.443057,243
3215.444126,287
3215.445049,324
3215.446066,340
3215.447062,335
3215.448036,321
3215.449053,294
3215.450019,246
3215.451043,190
3215.452079,141
3215.453062,111
3215.454079,117
3215.455066,158
3215.456069,205
3215.457054,232
3215.458092,252
3215.45903,272
3215.460064,293
3215.461049,319
3215.462049,357
3215.463056,376
3215.464051,366
3215.465021,336
3215.466031,301
3215.467032,283
3215.468042,262
3215.469052,221
3215.47008,189
3215.471068,166
3215.472046,165
3215.473056,181
3215.474071,184
3215.47507,186
3215.476032,197
3215.47705,220
3215.47805,242
3215.479042,261
3215.480034,282
3215.481038,284
3215.482017,246
3215.483037,194
3215.484034,167
3215.485045,153
3215.486104,154
3215.487054,158
3215.488054,146
3215.489072,126
3215.490062,144
3215.491044,175
3215.492023,196
3215.493057,234
3215.494044,261
3215.495034,250
3215.496065,215
3215.497066,172
3215.498021,144
3215.499044,132
3215.500036,96
3215.501028,47
3215.502035,4
3215.503065,-17
3215.504077,-17
3215.505045,-11
3215.50605,-3
3215.507079,8
3215.508058,23
3215.509046,50
3215.510054,81
3215.511044,102
3215.512037,122
3215.513119,123
3215.514063,108
3215.515031,80
3215.516022,25
3215.517029,-35
3215.518012,-79
3215.51908,-106
3215.520057,-120
3215.521052,-126
3215.522046,-112
3215.523071,-87
3215.52406,-66
3215.525056,-49
3215.526067,-38
3215.527051,-11
3215.52804,21
3215.529056,32
3215.530087,39
3215.531037,35
3215.532025,6
3215.533019,-49
3215.534034,-108
3215.535012,-151
3215.536039,-170
3215.537072,-161
3215.538068,-140
3215.53904,-104
3215.540043,-52
3215.541085,21
3215.542049,65
3215.543046,67
3215.544048,77
3215.545048,97
3215.546032,102
3215.547021,79
3215.548034,47
3215.549028,-4
3215.55003,-66
3215.55102,-109
3215.552029,-147
3215.55302,-168
3215.554053,-167
3215.555033,-159
3215.556065,-156
3215.557032,-152
3215.55803,-127
3215.55908,-83
3215.560052,-42
3215.561036,-32
3215.562048,-39
3215.563041,-44
3215.56404,-56
3215.565032,-77
3215.566038,-90
3215.567011,-90
3215.568019,-75
3215.569036,-74
3215.570053,-85
3215.571065,-92
3215.572064,-87
3215.573041,-79
3215.574053,-50
3215.575052,-2
3215.576045,28
3215.577034,31
3215.578025,10
3215.579031,-19
3215.580019,-50
3215.581016,-80
3215.582021,-107
3215.583018,-130
3215.584008,-138
3215.585017,-136
3215.586022,-146
3215.587024,-158
3215.588057,-155
3215.589017,-145
3215.590009,-121
3215.591051,-101
3215.59202,-87
3215.593015,-72
3215.594026,-63
3215.594997,-50
3215.596025,-27
3215.597009,-2
3215.59801,20
3215.599035,20
3215.6,-5
3215.601006,-46
3215.602076,-95
3215.603016,-114
3215.603991,-105
3215.605016,-102
3215.606037,-108
3215.607022,-110
3215.60804,-97
3215.609034,-72
3215.610022,-34
3215.611014,18
3215.612036,67
3215.613003,93
3215.61402,99
3215.615005,98
3215.616015,54
3215.617035,-21
3215.618016,-95
3215.618997,-145
3215.620032,-158
3215.621004,-166
3215.622033,-186
3215.623039,-203
3215.62412,-180
3215.625028,-130
3215.626024,-98
3215.627036,-77
3215.628035,-49
3215.629026,-17
3215.630033,-9
3215.631022,-21
3215.632015,-27
3215.633023,-40
3215.634014,-53
3215.635016,-52
3215.636017,-62
3215.637021,-82
3215.638019,-99
3215.639022,-104
3215.64004,-91
3215.641022,-68
3215.64201,-44
3215.643016,-30
3215.644021,-14
3215.64501,11
3215.646031,36
3215.647015,43
3215.648019,20
3215.648997,-2
3215.650005,-49
3215.650991,-106
3215.652025,-159
3215.653017,-216
3215.653998,-260
3215.655008,-257
3215.656012,-214
3215.657032,-140
3215.658025,-51
3215.658989,18
3215.659999,54
3215.661039,72
3215.662006,69
3215.66299,61
3215.664012,52
3215.665038,35
3215.66601,1
3215.666999,-58
3215.668035,-110
3215.669025,-128
3215.670019,-120
3215.670999,-115
3215.672003,-122
3215.67304,-132
3215.674022,-125
3215.67502,-104
3215.676035,-78
3215.677002,-36
3215.678079,10
3215.679006,41
3215.680024,56
3215.681002,48
3215.682,20
3215.683011,-28
3215.684,-76
3215.68502,-110
3215.686003,-139
3215.687002,-175
3215.687985,-180
3215.688998,-147
3215.690015,-96
3215.691029,-43
3215.692026,8
3215.693028,53
3215.694024,77
3215.694995,78
3215.696053,64
3215.697022,47
3215.698014,23
3215.699024,-11
3215.699997,-53
3215.701098,-95
3215.702006,-130
3215.703062,-156
3215.704002,-157
3215.704995,-142
3215.705999,-122
3215.707018,-86
3215.708013,-46
3215.709013,-17
3215.710171,6
3215.711015,27
3215.712011,52
3215.713062,64
3215.714014,45
3215.715002,5
3215.716609,-35
3215.716991,-74
3215.718001,-100
3215.719003,-122
3215.720027,-131
3215.720992,-129
3215.722012,-122
3215.722984,-107
3215.723994,-86
3215.725058,-57
3215.726009,-21
3215.727012,20
3215.728015,46
3215.728988,63
3215.730006,63
3215.731038,55
3215.731991,29
3215.733005,-19
3215.734002,-73
3215.734997,-117
3215.735996,-118
3215.73701,-94
3215.737978,-82
3215.738988,-78
3215.73998,-75
3215.741015,-79
3215.741991,-81
3215.743026,-66
3215.744012,-27
3215.745004,32
3215.746026,84
3215.747004,96
3215.74799,58
3215.749002,22
3215.749983,-17
3215.751007,-50
3215.751998,-81
3215.753004,-109
3215.754037,-124
3215.754998,-128
3215.755979,-122
3215.756995,-96
3215.757999,-55
3215.759017,-7
3215.759997,37
3215.76099,53
3215.762026,61
3215.76306,65
3215.763998,49
3215.765008,21
3215.765991,-22
3215.766998,-54
3215.767992,-74
3215.769027,-93
3215.770043,-107
3215.770988,-127
3215.771983,-131
3215.772983,-96
3215.773991,-44
3215.775006,11
3215.776007,55
3215.777007,58
3215.778009,20
3215.778985,-25
3215.77999,-56
3215.781022,-61
3215.781983,-57
3215.782997,-53
3215.783975,-43
3215.784992,-38
3215.785973,-37
3215.786984,-35
3215.788,-42
3215.788974,-63
3215.790008,-95
3215.791012,-122
3215.792008,-126
3215.792997,-105
3215.794005,-54
3215.794992,-4
3215.795987,33
3215.79699,40
3215.797992,25
3215.79902,-5
3215.799985,-51
3215.800974,-77
3215.801967,-92
3215.802972,-111
3215.804037,-138
3215.804953,-154
3215.805959,-152
3215.806954,-134
3215.807955,-97
3215.80901,-42
3215.809995,6
3215.811,27
3215.812008,20
3215.812981,11
3215.814004,14
3215.81498,16
3215.81599,-11
3215.817007,-43
3215.817984,-63
3215.818962,-67
3215.819976,-72
3215.820982,-86
3215.821976,-95
3215.822987,-95
3215.823972,-88
3215.825001,-65
3215.82599,-35
3215.827004,-8
3215.827995,19
3215.828978,25
3215.829981,22
3215.830987,20
3215.831989,17
3215.832987,-2
3215.833989,-53
3215.834998,-105
3215.835989,-117
3215.836979,-113
3215.837967,-117
3215.838977,-130
3215.839975,-120
3215.840992,-87
3215.841979,-54
3215.84302,-27
3215.844012,5
3215.844999,32
3215.845985,38
3215.846992,24
3215.84798,7
3215.848988,-16
3215.849984,-31
3215.851002,-55
3215.852002,-79
3215.852974,-99
3215.854102,-115
3215.854975,-131
3215.855971,-141
3215.856973,-131
3215.857971,-99
3215.858975,-74
3215.859998,-50
3215.860993,-23
3215.861978,14
3215.863014,41
3215.86401,50
3215.865025,41
3215.866013,18
3215.866976,-16
3215.867999,-47
3215.868989,-67
3215.869981,-98
3215.871009,-139
3215.871987,-159
3215.87297,-143
3215.874012,-118
3215.874985,-87
3215.87597,-44
3215.877014,2
3215.878008,42
3215.87898,61
3215.879979,65
3215.881014,68
3215.881985,72
3215.883,29
3215.883967,-12
3215.884977,-42
3215.885984,-81
3215.886996,-118
3215.887989,-127
3215.888954,-116
3215.889983,-92
3215.890999,-57
3215.891961,-21
3215.89298,4
3215.893989,14
3215.89499,14
3215.896005,18
3215.896978,26
3215.897998,19
3215.898992,-4
3215.899981,-38
3215.900977,-71
3215.901988,-100
3215.902992,-119
3215.903997,-125
3215.904999,-126
3215.905995,-119
3215.90699,-93
3215.907977,-61
3215.90898,-32
3215.909991,-2
3215.911032,37
3215.911986,70
3215.912985,68
3215.913987,36
3215.914969,-6
3215.915993,-40
3215.91699,-63
3215.917973,-82
3215.918988,-87
3215.92001,-92
3215.92099,-103
3215.921962,-115
3215.922983,-115
3215.92397,-94
3215.924979,-58
3215.925968,-18
3215.926981,23
3215.927982,62
3215.92897,84
3215.92998,84
3215.931002,64
3215.93198,28
3215.932985,-10
3215.93399,-44
3215.935011,-80
3215.935965,-91
3215.936955,-89
3215.937985,-119
3215.938983,-155
3215.939963,-165
3215.940968,-147
3215.94196,-118
3215.94297,-101
3215.943967,-80
3215.944983,-32
3215.945987,1
3215.947011,7
3215.947995,15
3215.948999,22
3215.950041,11
3215.950987,-11
3215.951964,-22
3215.952971,-29
3215.954023,-29
3215.954982,-38
3215.955972,-55
3215.956973,-48
3215.957975,-36
3215.958971,-43
3215.959981,-40
3215.960957,-3
3215.961992,42
3215.962997,63
3215.964012,67
3215.965022,56
3215.965989,35
3215.966985,-16
3215.967985,-81
3215.96898,-122
3215.969988,-157
3215.971007,-187
3215.971966,-199
3215.972957,-179
3215.973988,-123
3215.974979,-74
3215.975956,-29
3215.976963,22
3215.977986,70
3215.978986,96
3215.979991,90
3215.981001,69
3215.982004,46
3215.98302,21
3215.983986,-14
3215.985004,-72
3215.985992,-132
3215.986982,-164
3215.987955,-150
3215.988977,-109
3215.989951,-67
3215.990998,-40
3215.991953,-29
3215.99297,-17
3215.99398,14
3215.994972,48
3215.996006,57
3215.996991,40
3215.997995,23
3215.998975,13
3215.999979,-16
3216.000991,-52
3216.001969,-77
3216.002972,-84
3216.004002,-91
3216.004973,-95
3216.005978,-84
3216.006963,-59
3216.007951,-31
3216.009078,-8
3216.009985,26
3216.010998,69
3216.011984,98
3216.012982,108
3216.013994,102
3216.01499,81
3216.015976,48
3216.01701,12
3216.017958,-6
3216.018975,-21
3216.020045,-48
3216.02097,-61
3216.021973,-79
3216.022957,-96
3216.023979,-85
3216.02498,-44
3216.025991,6
3216.026955,26
3216.027957,22
3216.028958,26
3216.029981,44
3216.030994,62
3216.031997,57
3216.033026,32
3216.034012,11
3216.034998,5
3216.035983,3
3216.036998,-4
3216.037986,3
3216.038962,7
3216.039977,8
3216.040969,6
3216.041988,29
3216.042967,82
3216.044071,136
3216.044954,182
3216.045945,208
3216.046973,189
3216.047958,141
3216.048966,83
3216.049969,26
3216.05097,-11
3216.05197,-25
3216.052973,-35
3216.054065,-47
3216.055097,-71
3216.055972,-92
3216.056963,-87
3216.058001,-45
3216.058954,14
3216.059953,70
3216.060962,125
3216.061973,166
3216.062967,187
3216.063973,166
3216.064981,91
3216.066076,21
3216.067008,-19
3216.06801,-56
3216.068987,-83
3216.069986,-113
3216.070965,-143
3216.071981,-155
3216.07305,-141
3216.074032,-106
3216.074957,-54
3216.075995,-9
3216.076957,53
3216.07795,79
3216.078941,74
3216.079948,67
3216.080965,42
3216.081969,14
3216.082967,-16
3216.083977,-55
3216.084957,-95
3216.085958,-127
3216.086957,-151
3216.087949,-161
3216.088971,-168
3216.089928,-155
3216.090965,-109
3216.091984,-57
3216.092952,-22
3216.093949,-12
3216.094915,-15
3216.095912,-18
3216.096945,-12
3216.097952,-30
3216.098943,-81
3216.099947,-140
3216.100964,-160
3216.101945,-150
3216.10294,-140
3216.103985,-132
3216.104952,-119
3216.105948,-108
3216.106957,-92
3216.107942,-63
3216.108953,-24
3216.109999,11
3216.110939,36
3216.111946,51
3216.112927,54
3216.113947,43
3216.114969,10
3216.115968,-36
3216.116967,-78
3216.117969,-124
3216.118969,-152
3216.119958,-155
3216.121669,-145
3216.122629,-127
3216.122941,-108
3216.123981,-76
3216.124939,-29
3216.125943,13
3216.126934,29
3216.127925,29
3216.128964,26
3216.12992,46
3216.130967,57
3216.13201,39
3216.132957,11
3216.133963,-21
3216.134967,-62
3216.135981,-82
3216.136955,-81
3216.137953,-75
3216.138948,-57
3216.139951,-29
3216.140948,8
3216.141959,43
3216.142941,70
3216.143941,101
3216.144934,142
3216.145904,184
3216.146934,212
3216.147955,223
3216.148953,220
3216.149947,209
3216.150936,207
3216.15196,212
3216.15294,228
3216.154054,241
3216.15496,244
3216.155959,258
3216.156935,286
3216.157937,303
3216.158926,313
3216.159925,320
3216.16093,318
3216.161927,317
3216.162947,308
3216.163941,273
3216.164951,224
3216.166113,159
3216.166959,81
3216.16798,-7
3216.169362,-81
3216.170318,-132
3216.170937,-164
3216.171976,-169
3216.172962,-152
3216.173941,-124
3216.174957,-82
3216.175933,-25
3216.177009,32
3216.177909,67
3216.178938,87
3216.179917,84
3216.18093,45
3216.181966,2
3216.182954,-38
3216.184332,-93
3216.185366,-127
3216.18596,-131
3216.186963,-142
3216.188011,-162
3216.188929,-150
3216.189974,-115
3216.190939,-73
3216.191928,-34
3216.192909,16
3216.193907,77
3216.194912,107
3216.195976,91
3216.196914,70
3216.197987,59
3216.198949,49
3216.200023,26
3216.200941,-19
3216.201939,-58
3216.203226,-83
3216.204254,-95
3216.205213,-80
3216.206197,-33
3216.207221,8
3216.208199,27
3216.209187,21
3216.210182,9
3216.211198,3
3216.212215,13
3216.213222,30
3216.214186,35
3216.215192,31
3216.216189,12
3216.217182,-17
3216.218182,-36
3216.219192,-43
3216.220219,-28
3216.221153,-34
3216.222237,-60
3216.223162,-64
3216.224159,-45
3216.225171,-11
3216.22616,10
3216.227153,18
3216.228201,36
3216.22916,54
3216.230154,48
3216.231141,16
3216.232149,-28
3216.233168,-61
3216.234158,-78
3216.235143,-95
3216.236144,-107
3216.237141,-104
3216.238132,-74
3216.239125,-56
3216.240135,-38
3216.241137,6
3216.242127,43
3216.243139,65
3216.244172,69
3216.245124,62
3216.246238,58
3216.247133,46
3216.248128,27
3216.249139,17
3216.250138,-10
3216.251111,-57
3216.252118,-90
3216.253108,-102
3216.254115,-108
3216.255098,-110
3216.256112,-111
3216.257108,-111
3216.258162,-76
3216.259085,-26
3216.260173,10
3216.261112,29
3216.262093,36
3216.263082,47
3216.264077,58
3216.265082,53
3216.266087,33
3216.267067,14
3216.268071,-9
3216.269151,-27
3216.27007,-40
3216.271062,-54
3216.272058,-61
3216.273062,-49
3216.274048,-20
3216.275057,20
3216.27605,54
3216.277099,86
3216.278058,118
3216.279058,134
3216.280139,142
3216.281038,146
3216.28203,149
3216.283051,123
3216.284041,74
3216.285033,6
3216.286045,-69
3216.287043,-125
3216.288021,-148
3216.289036,-123
3216.290075,-54
3216.291043,33
3216.292029,89
3216.29302,137
3216.294,178
3216.295023,195
3216.296011,193
3216.297022,155
3216.298011,109
3216.299018,62
3216.300011,11
3216.301011,-2
3216.302065,6
3216.30302,-19
3216.304035,-77
3216.305008,-113
3216.306054,-105
3216.307033,-83
3216.307998,-65
3216.308999,-47
3216.310041,-15
3216.311,30
3216.311992,78
3216.312999,118
3216.314017,133
3216.314979,105
3216.315989,50
3216.316991,1
3216.317986,-37
3216.318993,-51
3216.31998,-44
3216.320982,-61
3216.32203,-72
3216.322979,-46
3216.323976,-11
3216.324967,28
3216.325994,69
3216.326962,107
3216.327977,144
3216.328971,183
3216.329964,185
3216.33096,148
3216.331946,121
3216.332951,101
3216.33395,78
3216.334935,60
3216.335928,39
3216.336936,16
3216.337943,1
3216.338942,-3
3216.339963,15
3216.340936,52
3216.341929,94
3216.342944,120
3216.343917,130
3216.344935,136
3216.345928,144
3216.346922,145
3216.347917,146
3216.34891,141
3216.349925,107
3216.350908,57
3216.351903,33
3216.352908,32
3216.353939,25
3216.354919,21
3216.355911,45
3216.356899,116
3216.357887,195
3216.358912,239
3216.359926,256
3216.36094,285
3216.361928,300
3216.362921,280
3216.363914,239
3216.364907,205
3216.365917,177
3216.366912,159
3216.367967,144
3216.368916,144
3216.369919,124
3216.370886,98
3216.371932,80
3216.372896,85
3216.373907,124
3216.374907,166
3216.375918,207
3216.376943,237
3216.377943,257
3216.378932,274
3216.379905,272
3216.380909,251
3216.381926,213
3216.382912,155
3216.383922,103
3216.38491,88
3216.385917,98
3216.386908,114
3216.387909,136
3216.388909,163
3216.389903,190
3216.390899,224
3216.391888,247
3216.392903,255
3216.393939,272
3216.394905,293
3216.395916,314
3216.396957,313
3216.397925,291
3216.398929,259
3216.399991,233
3216.400883,207
3216.401921,187
3216.402892,184
3216.403977,180
3216.405804,168
3216.405907,157
3216.406889,156
3216.407904,179
3216.408898,226
3216.409896,271
3216.410926,312
3216.411925,347
3216.412909,349
3216.413936,332
3216.414917,304
3216.415921,260
3216.417611,224
3216.417915,199
3216.418907,177
3216.419903,157
3216.420907,146
3216.421904,151
3216.42291,162
3216.423895,160
3216.424893,172
3216.425921,223
3216.426898,264
3216.42793,280
3216.428935,278
3216.429911,246
3216.430937,219
3216.431949,200
3216.432915,176
3216.43391,146
3216.434906,105
3216.435915,68
3216.436915,32
3216.437892,7
3216.43893,3
3216.439914,21
3216.440927,46
3216.441903,69
3216.442883,99
3216.443896,110
3216.444916,114
3216.445911,117
3216.446922,92
3216.447918,54
3216.44891,18
3216.449913,-31
3216.450926,-83
3216.451892,-123
3216.452884,-141
3216.453939,-142
3216.454895,-140
3216.455891,-124
3216.456912,-93
3216.457899,-63
3216.458927,-57
3216.459913,-55
3216.460898,-16
3216.461925,50
3216.46294,96
3216.463908,84
3216.464886,51
3216.465913,18
3216.466911,-7
3216.467902,-29
3216.46892,-62
3216.469915,-97
3216.470953,-121
3216.471922,-137
3216.472921,-146
3216.473885,-138
3216.474923,-116
3216.475926,-91
3216.476885,-65
3216.477906,-30
3216.478937,4
3216.479931,29
3216.480937,40
3216.48192,24
3216.482901,-23
3216.483911,-82
3216.484899,-148
3216.485907,-206
3216.486901,-235
3216.487903,-241
3216.488911,-220
3216.48992,-155
3216.490892,-61
3216.491919,-2
3216.492892,22
3216.493883,37
3216.494883,56
3216.495925,66
3216.496909,46
3216.497914,-2
3216.498909,-52
3216.499905,-94
3216.500899,-129
3216.501885,-152
3216.502906,-179
3216.503904,-205
3216.504898,-191
3216.505902,-153
3216.506891,-114
3216.507907,-87
3216.508892,-60
3216.509938,-28
3216.510908,10
3216.511889,17
3216.512903,-2
3216.513916,-37
3216.514939,-98
3216.515955,-152
3216.516939,-186
3216.517921,-205
3216.518891,-218
3216.519889,-196
3216.520908,-164
3216.521902,-147
3216.522909,-141
3216.5239,-142
3216.524882,-133
3216.525877,-101
3216.526895,-67
3216.527879,-40
3216.528869,-16
3216.529931,-4
3216.530928,-6
3216.531901,-8
3216.532893,-34
3216.533886,-81
3216.534895,-133
3216.535917,-164
3216.536907,-161
3216.537886,-140
3216.5389,-113
3216.539898,-105
3216.540865,-99
3216.541875,-78
3216.54291,-41
3216.543873,-2
3216.544887,24
3216.545876,23
3216.546938,-6
3216.547913,-32
3216.548922,-56
3216.549893,-80
3216.550898,-113
3216.551915,-152
3216.552896,-175
3216.55394,-170
3216.554912,-146
3216.55589,-118
3216.556878,-77
3216.557868,-24
3216.558884,4
3216.55987,6
3216.560865,14
3216.56187,10
3216.562871,-14
3216.563914,-39
3216.5649,-51
3216.565911,-79
3216.566882,-122
3216.567938,-145
3216.568889,-136
3216.569915,-144
3216.570918,-167
3216.571896,-175
3216.572894,-164
3216.573872,-143
3216.574886,-109
3216.575881,-61
3216.57689,-27
3216.577878,-13
3216.578889,-28
3216.579872,-42
3216.580909,-52
3216.581896,-62
3216.582892,-69
3216.583884,-75
3216.584889,-87
3216.585895,-96
3216.586906,-97
3216.587926,-102
3216.588886,-105
3216.58991,-102
3216.590919,-95
3216.591883,-78
3216.592904,-44
3216.59387,11
3216.594878,51
3216.595887,69
3216.596899,69
3216.597902,48
3216.598916,12
3216.599915,-30
3216.600909,-56
3216.601988,-81
3216.602884,-123
3216.603906,-172
3216.604897,-198
3216.605895,-189
3216.60687,-163
3216.607877,-124
3216.608902,-87
3216.609916,-54
3216.610879,-31
3216.611886,-19
3216.612902,-11
3216.613992,-31
3216.614908,-52
3216.615902,-69
3216.616889,-94
3216.617903,-121
3216.618911,-128
3216.619881,-117
3216.620911,-115
3216.621908,-117
3216.62291,-108
3216.623883,-89
3216.625,-68
3216.625899,-41
3216.62688,-3
3216.627879,43
3216.628882,60
3216.629868,70
3216.630849,73
3216.631902,52
3216.632905,23
3216.633894,-37
3216.6349,-90
3216.635903,-106
3216.636993,-79
3216.637984,-17
3216.638859,19
3216.639861,4
3216.64087,-43
3216.641882,-83
3216.64288,-94
3216.643888,-87
3216.644854,-61
3216.645874,-22
3216.646871,4
3216.647859,-10
3216.648967,-31
3216.649892,-42
3216.65087,-52
3216.651901,-58
3216.65287,-73
3216.654009,-84
3216.654897,-83
3216.655872,-74
3216.65686,-51
3216.657882,-14
3216.658871,20
3216.659883,55
3216.661067,86
3216.661885,99
3216.662894,96
3216.663883,82
3216.664857,54
3216.665904,13
3216.666901,-43
3216.667913,-82
3216.668887,-116
3216.669916,-156
3216.670908,-181
3216.671983,-185
3216.672893,-175
3216.673892,-130
3216.674869,-50
3216.675882,22
3216.676871,65
3216.677868,88
3216.678887,98
3216.679871,92
3216.680873,80
3216.681864,42
3216.682893,-3
3216.683972,-28
3216.684884,-55
3216.685905,-91
3216.686899,-118
3216.687889,-117
3216.688898,-92
3216.68988,-58
3216.690873,-28
3216.691885,8
3216.692874,35
3216.693888,41
3216.694913,50
3216.695884,60
3216.696878,53
3216.697904,26
3216.69885,-21
3216.699894,-52
3216.700892,-58
3216.701968,-78
3216.7029,-103
3216.703962,-109
3216.704896,-92
3216.706001,-59
3216.70689,-53
3216.70788,-61
3216.708868,-45
3216.7099,7
3216.71087,66
3216.711889,107
3216.712879,126
3216.713864,99
3216.714826,42
3216.715873,-26
3216.716901,-74
3216.717885,-105
3216.719771,-111
3216.720043,-102
3216.720898,-83
3216.721878,-70
3216.722874,-41
3216.723912,4
3216.724889,37
3216.725891,69
3216.726893,101
3216.727878,119
3216.728868,132
3216.729867,134
3216.730852,107
3216.731849,65
3216.73287,12
3216.733887,-19
3216.734879,-22
3216.735901,-36
3216.736865,-61
3216.737898,-94
3216.738882,-109
3216.739879,-88
3216.740993,-44
3216.741897,-13
3216.742891,10
3216.743867,30
3216.744871,51
3216.745855,51
3216.746855,50
3216.747871,51
3216.748853,31
3216.749913,-2
3216.750888,-38
3216.751875,-79
3216.752915,-100
3216.753866,-95
3216.754865,-68
3216.755864,-30
3216.756859,-9
3216.757861,5
3216.758866,12
3216.759862,11
3216.760857,21
3216.761871,37
3216.76286,40
3216.763857,24
3216.764862,9
3216.765865,-6
3216.766861,-27
3216.767883,-49
3216.768916,-65
3216.769887,-73
3216.770896,-69
3216.771895,-63
3216.772883,-62
3216.773865,-58
3216.774873,-35
3216.775863,6
3216.776856,60
3216.777871,106
3216.778861,128
3216.779852,123
3216.780843,90
3216.781844,30
3216.782831,-25
3216.783849,-64
3216.784881,-90
3216.785892,-105
3216.786871,-128
3216.78787,-126
3216.788877,-90
3216.789885,-53
3216.790931,-27
3216.791857,-5
3216.792859,28
3216.793874,64
3216.794861,98
3216.795859,111
3216.796852,107
3216.797845,101
3216.798898,75
3216.799866,20
3216.800845,-24
3216.801902,-34
3216.802878,-39
3216.803913,-54
3216.804875,-61
3216.80588,-45
3216.806885,-23
3216.807893,19
3216.80886,49
3216.809886,66
3216.810847,78
3216.811865,94
3216.812869,106
3216.813849,89
3216.814868,47
3216.815851,1
3216.816854,-30
3216.817857,-46
3216.818885,-58
3216.819885,-76
3216.820875,-72
3216.821869,-60
3216.822867,-62
3216.823867,-56
3216.824862,-22
3216.825861,15
3216.82687,33
3216.827863,46
3216.828847,64
3216.829858,72
3216.830874,75
3216.831853,62
3216.832864,34
3216.833849,11
3216.834865,-7
3216.835902,-29
3216.836885,-60
3216.83789,-97
3216.838862,-111
3216.839884,-93
3216.840852,-65
3216.84187,-33
3216.842862,16
3216.843861,59
3216.844848,83
3216.84588,93
3216.846854,99
3216.847857,91
3216.848842,57
3216.849845,9
3216.850827,-34
3216.851873,-80
3216.852873,-123
3216.853922,-136
3216.854875,-122
3216.855874,-79
3216.856865,-37
3216.857853,-2
3216.858867,40
3216.859854,80
3216.860867,113
3216.86187,131
3216.862866,131
3216.86387,103
3216.864869,56
3216.865865,18
3216.866848,-8
3216.867858,-22
3216.868859,-35
3216.869875,-46
3216.870873,-53
3216.871866,-57
3216.872874,-59
3216.874029,-56
3216.874891,-31
3216.875858,25
3216.876855,69
3216.877869,89
3216.878865,102
3216.879867,119
3216.880851,110
3216.881896,77
3216.882866,34
3216.883851,-9
3216.884858,-45
3216.885868,-79
3216.886872,-114
3216.887888,-151
3216.888901,-176
3216.889889,-150
3216.890883,-84
3216.891858,-18
3216.89285,35
3216.89386,75
3216.894866,110
3216.895873,124
3216.896871,107
3216.897872,83
3216.898852,76
3216.899842,54
3216.900847,8
3216.901849,-29
3216.902848,-72
3216.90396,-118
3216.904884,-125
3216.905872,-91
3216.906862,-36
3216.907883,2
3216.908852,28
3216.909874,65
3216.910866,108
3216.911848,137
3216.912848,137
3216.913849,109
3216.914863,63
3216.91584,10
3216.91685,-28
3216.917851,-39
3216.91884,-40
3216.919857,-40
3216.920864,-34
3216.921867,-25
3216.922889,-10
3216.923875,22
3216.924931,79
3216.925842,129
3216.926849,152
3216.927873,166
3216.928911,165
3216.929892,111
3216.930892,40
3216.931853,-9
3216.932873,-29
3216.933853,-41
3216.934846,-53
3216.93584,-69
3216.936851,-66
3216.937884,-46
3216.938892,-33
3216.939875,-11
3216.940851,16
3216.941904,22
3216.942871,40
3216.943849,79
3216.944857,112
3216.945863,138
3216.946854,156
3216.947836,163
3216.94887,148
3216.949845,101
3216.950845,53
3216.951875,39
3216.952884,39
3216.953842,39
3216.954891,46
3216.955899,52
3216.95688,40
3216.957873,29
3216.958877,39
3216.95986,82
3216.960876,120
3216.961855,120
3216.962841,100
3216.963861,89
3216.964846,85
3216.965857,74
3216.96685,56
3216.967872,35
3216.968863,31
3216.969854,19
3216.970854,-9
3216.971865,-7
3216.972871,27
3216.973883,63
3216.974863,99
3216.975879,137
3216.976847,172
3216.97786,200
3216.97885,213
3216.97987,221
3216.98087,222
3216.981841,167
3216.982904,83
3216.983858,14
3216.984862,-44
3216.985829,-86
3216.986889,-96
3216.987856,-101
3216.988874,-110
3216.989856,-90
3216.990905,-32
3216.991863,23
3216.992867,57
3216.993867,78
3216.994854,81
3216.995864,73
3216.996845,57
3216.997856,21
3216.998856,-14
3216.999841,-38
3217.000847,-58
3217.001876,-75
3217.002851,-105
3217.003842,-138
3217.00485,-147
3217.005862,-121
3217.006877,-72
3217.007872,-5
3217.008866,53
3217.00986,77
3217.010846,84
3217.011901,72
3217.012848,39
3217.013853,-13
3217.014843,-41
3217.015838,-58
3217.016846,-72
3217.017825,-67
3217.018834,-69
3217.019837,-90
3217.020843,-110
3217.021839,-105
3217.022856,-81
3217.023884,-49
3217.024869,-22
3217.025857,5
3217.026867,31
3217.027851,53
3217.028861,64
3217.029859,56
3217.030861,15
3217.031883,-30
3217.032856,-65
3217.033833,-79
3217.034856,-82
3217.035848,-92
3217.036846,-104
3217.037837,-125
3217.038849,-139
3217.039868,-122
3217.040868,-70
3217.04187,-24
3217.042857,15
3217.043901,91
3217.044877,164
3217.045855,195
3217.046853,203
3217.047863,182
3217.048851,119
3217.049857,22
3217.050842,-58
3217.051874,-102
3217.052847,-123
3217.053849,-130
3217.05487,-131
3217.055823,-113
3217.05687,-61
3217.05787,6
3217.058871,52
3217.059881,95
3217.060881,145
3217.061872,188
3217.062855,219
3217.063836,235
3217.06486,240
3217.065862,235
3217.066858,219
3217.067855,190
3217.068846,176
3217.069847,183
3217.07082,206
3217.071832,243
3217.072826,289
3217.073867,339
3217.074863,395
3217.075876,431
3217.07685,429
3217.077847,420
3217.078871,404
3217.079852,379
3217.080871,340
3217.081841,296
3217.082843,253
3217.083857,207
3217.084844,109
3217.085831,-13
3217.08684,-96
3217.087834,-147
3217.088819,-160
3217.089816,-125
3217.09087,-96
3217.09185,-104
3217.092866,-96
3217.093856,-49
3217.094871,17
3217.09586,44
3217.096877,22
3217.09784,-8
3217.098869,-42
3217.099863,-80
3217.100815,-107
3217.101834,-115
3217.102849,-110
3217.103833,-90
3217.10489,-54
3217.105827,-24
3217.106832,-3
3217.107864,-2
3217.10885,-18
3217.109876,-17
3217.11085,16
3217.111864,55
3217.112898,83
3217.113856,89
3217.114852,76
3217.115836,54
3217.116849,40
3217.117846,20
3217.118838,-11
3217.119848,-42
3217.121111,-61
3217.122116,-71
3217.123108,-66
3217.124111,-33
3217.125102,5
3217.1261,44
3217.127087,87
3217.128119,117
3217.129102,131
3217.130099,128
3217.131096,94
3217.132079,44
3217.133914,-5
3217.134091,-33
3217.135141,-53
3217.136103,-61
3217.137086,-63
3217.138091,-55
3217.139081,-35
3217.140076,-16
3217.141077,10
3217.142132,8
3217.143065,-15
3217.144075,-26
3217.145083,-15
3217.146084,17
3217.147067,52
3217.148052,72
3217.149043,62
3217.150053,33
3217.151032,2
3217.152051,-27
3217.15305,-55
3217.154053,-74
3217.155027,-86
3217.156045,-84
3217.157062,-54
3217.158034,-18
3217.159033,10
3217.160041,23
3217.161041,29
3217.162018,39
3217.163001,41
3217.164002,36
3217.165018,29
3217.166021,16
3217.167028,7
3217.168009,-12
3217.16902,-36
3217.170052,-51
3217.170983,-50
3217.172009,-43
3217.172987,-54
3217.174025,-46
3217.175014,-7
3217.176017,36
3217.177004,81
3217.178002,118
3217.179042,118
3217.180329,83
3217.181704,57
3217.182001,29
3217.182991,-16
3217.18398,-31
3217.184982,-19
3217.185999,-15
3217.186994,-41
3217.188,-76
3217.189023,-88
3217.190012,-70
3217.190971,-25
3217.191976,26
3217.192983,64
3217.193967,85
3217.195012,104
3217.196159,123
3217.197249,129
3217.198057,112
3217.198996,76
3217.199967,36
3217.200956,8
3217.201958,-21
3217.202975,-44
3217.203944,-41
3217.204976,-27
3217.205955,-13
3217.206964,12
3217.207947,35
3217.208965,66
3217.209933,101
3217.210965,111
3217.211971,109
3217.212951,111
3217.213965,103
3217.214931,65
3217.215958,33
3217.216927,29
3217.217959,18
3217.219029,6
3217.219941,-5
3217.220944,-9
3217.221919,-14
3217.222939,10
3217.223911,40
3217.224934,55
3217.225929,74
3217.226934,100
3217.227944,119
3217.228903,118
3217.229908,96
3217.230912,67
3217.231913,40
3217.232877,7
3217.233872,-25
3217.234899,-40
3217.235892,-36
3217.236909,-17
3217.237879,11
3217.23887,25
3217.2399,35
3217.240946,54
3217.241865,83
3217.242889,125
3217.243878,169
3217.244898,190
3217.245889,178
3217.246862,157
3217.247876,135
3217.248876,104
3217.249882,60
3217.250862,16
3217.251881,-6
3217.25285,-4
3217.253856,-3
3217.25486,-7
3217.25586,4
3217.256881,43
3217.257869,107
3217.258829,162
3217.259832,204
3217.260865,246
3217.261867,267
3217.262853,259
3217.263841,229
3217.264837,188
3217.265873,150
3217.266858,132
3217.267837,116
3217.26884,93
3217.26986,68
3217.270856,45
3217.271872,45
3217.272874,65
3217.273861,76
3217.274859,89
3217.275871,117
3217.276853,140
3217.277838,171
3217.278858,196
3217.279848,221
3217.280843,237
3217.281841,235
3217.282841,208
3217.283836,165
3217.284836,115
3217.285846,72
3217.286842,35
3217.287878,17
3217.288884,32
3217.289858,75
3217.290844,113
3217.291851,145
3217.292851,183
3217.293887,223
3217.294846,250
3217.295853,258
3217.296838,254
3217.297843,248
3217.29885,224
3217.299838,189
3217.300839,156
3217.301843,134
3217.302829,139
3217.303848,136
3217.304873,126
3217.305872,155
3217.306844,216
3217.307847,260
3217.308933,274
3217.309873,277
3217.310861,299
3217.311865,346
3217.312837,397
3217.313839,395
3217.314848,341
3217.315851,294
3217.316841,245
3217.317827,203
3217.318837,189
3217.319829,186
3217.320829,179
3217.321853,159
3217.322867,144
3217.323859,161
3217.324871,194
3217.325845,225
3217.32686,269
3217.327851,306
3217.328849,317
3217.329844,304
3217.330851,274
3217.331836,241
3217.332834,213
3217.33384,197
3217.334836,179
3217.335859,166
3217.336826,160
3217.337874,161
3217.338864,175
3217.339866,202
3217.340844,238
3217.341834,273
3217.342871,297
3217.343846,318
3217.34485,309
3217.34585,271
3217.346823,230
3217.34783,197
3217.348857,148
3217.349837,83
3217.350839,27
3217.351847,-10
3217.352826,-27
3217.353863,-24
3217.354848,-6
3217.355836,12
3217.356852,14
3217.357883,10
3217.35885,27
3217.359842,79
3217.360857,124
3217.361839,124
3217.362857,113
3217.363854,100
3217.364846,69
3217.365838,22
3217.36684,-22
3217.367828,-53
3217.368849,-78
3217.369875,-93
3217.370864,-97
3217.371823,-114
3217.372876,-123
3217.373898,-87
3217.374878,-32
3217.37584,26
3217.376827,67
3217.377851,76
3217.378838,57
3217.379837,23
3217.380836,-11
3217.38184,-39
3217.382846,-57
3217.383816,-70
3217.384816,-96
3217.385825,-133
3217.386824,-164
3217.38782,-174
3217.388821,-154
3217.389842,-111
3217.390847,-82
3217.391863,-58
3217.392849,-27
3217.393847,11
3217.394849,37
3217.395844,26
3217.396837,-22
3217.397832,-77
3217.398827,-125
3217.399828,-155
3217.400841,-148
3217.401849,-133
3217.402835,-146
3217.403935,-178
3217.404824,-215
3217.405839,-226
3217.406867,-199
3217.407875,-165
3217.408866,-139
3217.409891,-104
3217.41085,-64
3217.411845,-47
3217.412846,-49
3217.413839,-67
3217.414827,-111
3217.415843,-166
3217.416836,-189
3217.417834,-193
3217.418847,-194
3217.419871,-188
3217.420875,-180
3217.42183,-159
3217.422872,-137
3217.423865,-135
3217.424861,-146
3217.425854,-145
3217.42687,-141
3217.427845,-127
3217.428863,-91
3217.429833,-52
3217.430841,-32
3217.43184,-35
3217.432879,-67
3217.434334,-129
3217.434946,-184
3217.435838,-206
3217.436848,-206
3217.43783,-208
3217.438822,-207
3217.439834,-189
3217.440849,-152
3217.441847,-132
3217.442871,-115
3217.44388,-82
3217.44487,-23
3217.445844,16
3217.446845,14
3217.447845,-6
3217.448862,-27
3217.449859,-57
3217.450869,-97
3217.451869,-127
3217.452843,-158
3217.453852,-189
3217.454853,-213
3217.455824,-224
3217.456815,-206
3217.457844,-156
3217.458857,-110
3217.459857,-75
3217.460864,-41
3217.461858,-6
3217.462849,-9
3217.463838,-29
3217.464833,-47
3217.465838,-75
3217.466845,-114
3217.467852,-165
3217.46887,-216
3217.46985,-239
3217.470847,-221
3217.471821,-199
3217.472798,-186
3217.473829,-160
3217.474866,-116
3217.475881,-64
3217.476906,7
3217.477867,55
3217.478855,37
3217.479843,-27
3217.480851,-93
3217.481839,-137
3217.482828,-162
3217.48384,-188
3217.484835,-209
3217.485838,-211
3217.486828,-199
3217.487845,-168
3217.488838,-140
3217.489818,-117
3217.490819,-98
3217.491868,-90
3217.492871,-89
3217.49386,-82
3217.494841,-68
3217.495859,-58
3217.496848,-46
3217.497846,-33
3217.498849,-37
3217.499857,-81
3217.500876,-141
3217.501833,-203
3217.502854,-261
3217.503844,-290
3217.504816,-268
3217.505827,-211
3217.506854,-144
3217.507839,-91
3217.508869,-36
3217.50986,30
3217.510854,66
3217.511895,83
3217.512847,97
3217.513841,88
3217.514829,31
3217.515849,-60
3217.516843,-126
3217.517846,-153
3217.51885,-161
3217.519848,-180
3217.520867,-206
3217.52184,-205
3217.522866,-185
3217.523837,-147
3217.524832,-92
3217.525864,-16
3217.526858,42
3217.527888,44
3217.528859,18
3217.529857,-6
3217.530847,-17
3217.531842,-45
3217.532849,-90
3217.533875,-125
3217.534845,-148
3217.535842,-159
3217.536835,-178
3217.537833,-179
3217.538847,-149
3217.539885,-112
3217.540825,-90
3217.541828,-72
3217.542945,-56
3217.543877,-35
3217.544845,-34
3217.545839,-47
3217.546827,-56
3217.547838,-67
3217.548839,-88
3217.549834,-112
3217.550834,-124
3217.551838,-126
3217.552832,-134
3217.553861,-148
3217.554824,-157
3217.555849,-144
3217.556825,-117
3217.557864,-83
3217.558806,-55
3217.559858,-28
3217.560859,-5
3217.561856,16
3217.562847,14
3217.563852,-20
3217.564847,-58
3217.565844,-86
3217.566832,-101
3217.567834,-99
3217.56882,-90
3217.569839,-112
3217.570833,-138
3217.571836,-111
3217.57283,-67
3217.573842,-24
3217.574835,3
3217.575817,4
3217.576869,-7
3217.577859,-8
3217.578856,-4
3217.579866,-6
3217.580853,-25
3217.581858,-63
3217.58285,-111
3217.583851,-149
3217.584881,-171
3217.585877,-173
3217.586843,-165
3217.587845,-160
3217.588861,-152
3217.58987,-134
3217.590879,-104
3217.591876,-57
3217.592826,-3
3217.593849,35
3217.594882,38
3217.595866,22
3217.596843,12
3217.597835,-14
3217.598837,-41
3217.59985,-70
3217.600835,-105
3217.601874,-146
3217.60284,-184
3217.603884,-204
3217.604836,-198
3217.605838,-169
3217.606824,-128
3217.607857,-94
3217.608824,-58
3217.609828,-16
3217.610893,22
3217.611863,36
3217.612868,21
3217.613849,-18
3217.614864,-61
3217.615849,-117
3217.616857,-151
3217.617834,-152
3217.618836,-139
3217.619835,-136
3217.620848,-139
3217.621838,-122
3217.622812,-89
3217.623826,-52
3217.624825,-22
3217.62583,5
3217.626844,23
3217.627867,34
3217.628853,37
3217.629846,17
3217.630854,-5
3217.631857,-12
3217.632836,-34
3217.633857,-73
3217.634858,-107
3217.635843,-138
3217.636841,-171
3217.637806,-184
3217.638831,-165
3217.639824,-128
3217.640842,-82
3217.641835,-40
3217.642806,-13
3217.643839,13
3217.64484,46
3217.645846,66
3217.646872,60
3217.647851,31
3217.648831,-10
3217.649832,-47
3217.650821,-92
3217.651836,-118
3217.652812,-122
3217.653846,-136
3217.654826,-157
3217.655817,-157
3217.656814,-114
3217.657809,-54
3217.65882,-17
3217.659808,-14
3217.660799,-22
3217.661836,-31
3217.662834,-34
3217.663825,-23
3217.664831,-11
3217.665819,-37
3217.66685,-87
3217.667843,-118
3217.668829,-129
3217.669835,-133
3217.670828,-135
3217.67185,-117
3217.672894,-92
3217.673835,-79
3217.674799,-71
3217.675815,-61
3217.676816,-51
3217.677824,-56
3217.678832,-84
3217.679829,-99
3217.68083,-95
3217.681837,-85
3217.682833,-88
3217.683852,-101
3217.684822,-105
3217.685842,-107
3217.686839,-111
3217.687824,-111
3217.688826,-115
3217.689815,-116
3217.690808,-90
3217.691818,-54
3217.692816,-22
3217.693843,12
3217.694829,39
3217.695854,48
3217.696843,52
3217.69786,50
3217.698832,19
3217.699843,-34
3217.700818,-70
3217.701831,-81
3217.702835,-95
3217.703842,-110
3217.704815,-116
3217.705829,-91
3217.706864,-49
3217.707867,-30
3217.708819,-20
3217.709814,3
3217.710809,26
3217.711818,40
3217.712826,37
3217.713827,31
3217.714836,13
3217.715848,-11
3217.716834,-30
3217.71783,-83
3217.718823,-138
3217.719833,-155
3217.720875,-180
3217.721842,-240
3217.722827,-278
3217.723827,-246
3217.724823,-177
3217.725841,-111
3217.726817,-63
3217.727812,-22
3217.728813,4
3217.729835,19
3217.730843,35
3217.732378,31
3217.73292,-3
3217.734179,-39
3217.73483,-73
3217.735827,-101
3217.73683,-115
3217.737829,-114
3217.738833,-95
3217.739807,-76
3217.74081,-50
3217.741793,-8
3217.742802,38
3217.743798,69
3217.744793,87
3217.745802,91
3217.746834,77
3217.747833,49
3217.748815,11
3217.749859,-32
3217.750826,-63
3217.751831,-77
3217.752818,-99
3217.753818,-116
3217.754819,-98
3217.755816,-51
3217.756822,1
3217.757818,41
3217.758837,53
3217.759813,61
3217.760805,68
3217.761806,76
3217.762792,79
3217.763858,65
3217.764825,54
3217.765827,63
3217.766834,76
3217.767807,85
3217.768825,89
3217.769829,73
3217.770834,53
3217.771811,47
3217.772809,43
3217.773796,19
3217.774808,-15
3217.775819,-11
3217.776797,19
3217.7778,35
3217.778832,34
3217.779826,25
3217.78082,20
3217.781821,16
3217.782814,2
3217.783808,-29
3217.785104,-59
3217.785818,-81
3217.786842,-84
3217.787798,-72
3217.788825,-39
3217.789805,8
3217.790806,44
3217.791783,59
3217.792812,61
3217.793802,68
3217.794795,65
3217.795808,50
3217.796795,29
3217.79781,11
3217.798808,-27
3217.799932,-78
3217.800817,-127
3217.801838,-142
3217.802817,-136
3217.80382,-132
3217.804802,-122
3217.805816,-102
3217.806802,-74
3217.807794,-42
3217.808836,8
3217.809804,39
3217.810789,39
3217.811794,14
3217.812777,-6
3217.813784,-15
3217.814814,-13
3217.81581,-26
3217.816805,-63
3217.817809,-111
3217.818826,-145
3217.819826,-167
3217.820814,-179
3217.821791,-169
3217.822806,-135
3217.823772,-67
3217.8248,6
3217.825789,41
3217.826782,44
3217.827782,38
3217.828791,24
3217.829785,15
3217.830781,11
3217.831812,-7
3217.832795,-33
3217.833796,-63
3217.83482,-93
3217.835797,-117
3217.836799,-134
3217.837827,-146
3217.838802,-126
3217.839784,-92
3217.840803,-70
3217.841778,-36
3217.842794,1
3217.843815,29
3217.844768,35
3217.845763,25
3217.84678,20
3217.847798,24
3217.848802,-11
3217.849806,-73
3217.850792,-126
3217.851799,-150
3217.852798,-156
3217.853824,-153
3217.854783,-139
3217.85579,-124
3217.856805,-102
3217.857788,-62
3217.858793,-9
3217.859797,32
3217.860778,47
3217.861772,61
3217.862803,72
3217.863815,64
3217.864783,42
3217.865816,8
3217.866797,-22
3217.867795,-34
3217.868798,-37
3217.869795,-50
3217.870781,-52
3217.87179,-17
3217.872816,30
3217.873795,63
3217.874783,109
3217.875793,180
3217.876773,228
3217.877768,273
3217.878777,306
3217.87978,293
3217.880772,251
3217.8818,224
3217.882811,240
3217.8838,271
3217.884797,303
3217.885801,326
3217.88681,337
3217.887813,333
3217.888814,309
3217.889798,276
3217.890784,269
3217.891805,274
3217.892779,282
3217.8938,290
3217.894787,273
3217.895781,219
3217.896791,130
3217.897783,24
3217.898759,-76
3217.899801,-146
3217.900773,-187
3217.901762,-205
3217.902811,-219
3217.90385,-235
3217.904774,-213
3217.905808,-167
3217.906805,-136
3217.907809,-104
3217.908816,-75
3217.909803,-49
3217.910792,-23
3217.911788,3
3217.912788,15
3217.913771,16
3217.914759,-2
3217.915755,-33
3217.9168,-60
3217.917767,-86
3217.918814,-93
3217.919821,-82
3217.920796,-74
3217.921796,-80
3217.922811,-68
3217.923827,-16
3217.924799,38
3217.92579,70
3217.926796,84
3217.927795,88
3217.928771,91
3217.929769,78
3217.93078,54
3217.931781,21
3217.933026,-22
3217.934015,-64
3217.935025,-90
3217.936011,-97
3217.93702,-105
3217.938005,-110
3217.939006,-98
3217.940002,-75
3217.941102,-35
3217.942016,22
3217.942984,78
3217.943981,122
3217.944999,148
3217.945988,161
3217.946997,164
3217.947999,148
3217.949004,110
3217.950024,75
3217.950987,34
3217.951973,-35
3217.952985,-102
3217.953993,-142
3217.954989,-156
3217.955973,-139
3217.95697,-95
3217.957966,-43
3217.958978,3
3217.959969,48
3217.96097,80
3217.961951,67
3217.96296,13
3217.963977,-41
3217.964954,-54
3217.965963,-79
3217.966968,-108
3217.967973,-130
3217.96898,-131
3217.969998,-112
3217.970969,-92
3217.971949,-77
3217.972921,-66
3217.973937,-35
3217.974937,17
3217.975952,56
3217.976928,83
3217.977935,105
3217.978946,113
3217.979909,90
3217.980934,49
3217.981931,15
3217.982922,-9
3217.983923,-32
3217.984956,-60
3217.985919,-79
3217.986929,-91
3217.987919,-108
3217.988928,-114
3217.989905,-102
3217.990919,-46
3217.991897,40
3217.992915,93
3217.993882,110
3217.994894,117
3217.995894,122
3217.996898,116
3217.997895,95
3217.998875,65
3217.999881,27
3218.000907,-15
3218.001902,-47
3218.002878,-64
3218.003885,-67
3218.004892,-58
3218.005856,-40
3218.006872,-13
3218.007874,19
3218.008879,46
3218.009871,89
3218.010876,129
3218.011856,141
3218.012868,141
3218.013854,134
3218.014861,107
3218.015857,64
3218.01685,30
3218.017863,17
3218.018834,26
3218.019854,27
3218.02084,20
3218.021841,-10
3218.022841,-38
3218.023866,-42
3218.024845,-24
3218.025838,11
3218.026855,52
3218.027832,88
3218.028843,97
3218.029844,94
3218.030881,93
3218.031846,62
3218.032849,8
3218.033836,-38
3218.034836,-55
3218.035838,-54
3218.036828,-46
3218.037813,-34
3218.038841,-23
3218.039819,-4
3218.040822,28
3218.041822,65
3218.042815,103
3218.043808,123
3218.044835,130
3218.0458,129
3218.046791,127
3218.047806,112
3218.048775,87
3218.049835,71
3218.050787,47
3218.051777,14
3218.052789,-22
3218.053776,-39
3218.054785,-2
3218.0558,69
3218.056771,126
3218.057772,153
3218.058773,154
3218.059801,148
3218.060785,146
3218.06179,145
3218.062791,153
3218.063772,155
3218.064772,134
3218.065758,94
3218.066759,51
3218.067775,16
3218.068764,-7
3218.069759,-12
3218.070878,-9
3218.071786,6
3218.072772,33
3218.073783,71
3218.074798,105
3218.07575,139
3218.076771,163
3218.077785,181
3218.078775,201
3218.079779,212
3218.080768,204
3218.081754,165
3218.082771,124
3218.083766,106
3218.084763,90
3218.085767,48
3218.08678,13
3218.087795,22
3218.088784,72
3218.089765,138
3218.090755,183
3218.091762,205
3218.092779,206
3218.093768,214
3218.094773,238
3218.095757,252
3218.096742,248
3218.097778,233
3218.098755,213
3218.099763,180
3218.10076,146
3218.10176,110
3218.102719,71
3218.103782,45
3218.104768,56
3218.105787,101
3218.106776,146
3218.107761,183
3218.10878,226
3218.109783,269
3218.110788,302
3218.111764,312
3218.112776,305
3218.113773,297
3218.114753,289
3218.115745,268
3218.116751,239
3218.117759,210
3218.11874,184
3218.119756,165
3218.120814,158
3218.121779,177
3218.122794,182
3218.123794,187
3218.124757,201
3218.12575,236
3218.126776,289
3218.127755,317
3218.128782,310
3218.129769,294
3218.130767,287
3218.131774,274
3218.132781,241
3218.13375,203
3218.134762,179
3218.135746,162
3218.136737,150
3218.137774,139
3218.138761,130
3218.139778,152
3218.140776,218
3218.141748,284
3218.142768,324
3218.143764,345
3218.145494,345
3218.145785,337
3218.146762,325
3218.147743,302
3218.148753,253
3218.14975,196
3218.150753,145
3218.151743,113
3218.152729,97
3218.15376,91
3218.154815,101
3218.155779,135
3218.156759,178
3218.157771,198
3218.158782,193
3218.159772,185
3218.16079,187
3218.161772,179
3218.162761,160
3218.163734,150
3218.164739,133
3218.16574,87
3218.166744,21
3218.167734,-30
3218.168734,-60
3218.169736,-70
3218.170724,-55
3218.171757,-26
3218.172769,2
3218.173764,27
3218.174742,64
3218.175753,93
3218.176741,101
3218.177765,103
3218.178759,61
3218.179759,22
3218.180756,8
3218.181745,-10
3218.182734,-32
3218.183753,-55
3218.184764,-76
3218.185753,-91
3218.186739,-94
3218.187754,-103
3218.188782,-142
3218.189766,-169
3218.190759,-151
3218.192947,-111
3218.193056,-65
3218.193734,-28
3218.194761,-11
3218.195757,-6
3218.19676,-5
3218.197731,-11
3218.198732,-45
3218.199751,-97
3218.200727,-133
3218.201748,-143
3218.202743,-170
3218.203742,-200
3218.204745,-205
3218.205775,-188
3218.206768,-149
3218.208601,-112
3218.208806,-96
3218.209779,-71
3218.210751,-28
3218.211751,-3
3218.212789,-19
3218.213746,-39
3218.21475,-55
3218.21577,-73
3218.216725,-107
3218.217745,-167
3218.218822,-231
3218.219735,-262
3218.220803,-254
3218.221741,-225
3218.222753,-187
3218.223747,-135
3218.224767,-68
3218.225741,-10
3218.226777,32
3218.227752,47
3218.228742,30
3218.229737,1
3218.230778,-31
3218.231725,-69
3218.232744,-117
3218.233752,-164
3218.234789,-180
3218.235738,-178
3218.236735,-173
3218.237736,-167
3218.238744,-147
3218.23975,-120
3218.240744,-95
3218.241758,-68
3218.242732,-57
3218.243745,-67
3218.253096,-53
3218.2531,-17
3218.253103,-5
3218.253107,-31
3218.253111,-88
3218.253114,-135
3218.253118,-170
3218.253122,-192
3218.253125,-198
3218.253876,-186
3218.254721,-175
3218.255719,-167
3218.256749,-158
3218.257746,-149
3218.258762,-130
3218.259731,-95
3218.260736,-48
3218.261744,3
3218.262742,3
3218.263751,-49
3218.264743,-101
3218.265771,-133
3218.266766,-142
3218.267721,-156
3218.268741,-182
3218.269725,-192
3218.27074,-196
3218.271763,-201
3218.272732,-207
3218.273788,-196
3218.27475,-163
3218.275737,-125
3218.276741,-90
3218.277767,-79
3218.27875,-72
3218.279754,-62
3218.280741,-59
3218.281739,-73
3218.282748,-95
3218.283759,-128
3218.284757,-148
3218.285767,-165
3218.286744,-176
3218.28775,-173
3218.288725,-166
3218.289773,-153
3218.290764,-133
3218.291751,-104
3218.292712,-59
3218.293749,-26
3218.294761,-15
3218.295735,-19
3218.296735,-34
3218.297737,-58
3218.298735,-96
3218.299761,-122
3218.300762,-139
3218.30184,-160
3218.302733,-173
3218.303743,-161
3218.304761,-146
3218.305728,-126
3218.306757,-91
3218.30775,-67
3218.308746,-68
3218.309755,-62
3218.310733,-16
3218.311752,32
3218.31273,13
3218.313736,-38
3218.314733,-84
3218.315735,-124
3218.316733,-149
3218.317734,-155
3218.318728,-156
3218.319727,-158
3218.320729,-157
3218.32173,-149
3218.322794,-144
3218.323722,-121
3218.324737,-81
3218.32575,-46
3218.326738,-17
3218.327754,18
3218.328742,32
3218.329747,17
3218.330733,-19
3218.33172,-67
3218.33273,-119
3218.333715,-159
3218.334751,-180
3218.335733,-191
3218.33675,-200
3218.337727,-204
3218.338719,-185
3218.339712,-144
3218.340745,-96
3218.341739,-48
3218.342739,1
3218.343756,48
3218.344735,80
3218.34574,71
3218.34673,26
3218.347738,-31
3218.348727,-90
3218.349705,-139
3218.350712,-160
3218.351725,-158
3218.352719,-163
3218.353717,-164
3218.354718,-144
3218.355719,-107
3218.356732,-69
3218.35771,-30
3218.358751,-5
3218.359767,17
3218.360729,39
3218.361747,52
3218.36275,39
3218.363738,-4
3218.364732,-62
3218.36573,-121
3218.366745,-162
3218.367754,-174
3218.368725,-177
3218.369735,-183
3218.370722,-181
3218.371732,-162
3218.372732,-123
3218.373736,-81
3218.374703,-59
3218.375755,-45
3218.376732,-13
3218.377747,17
3218.378723,19
3218.37977,-5
3218.380719,-46
3218.381738,-91
3218.382734,-112
3218.383723,-112
3218.384745,-107
3218.385724,-108
3218.386738,-125
3218.387716,-153
3218.388718,-172
3218.389691,-159
3218.390707,-126
3218.39171,-89
3218.392728,-57
3218.393738,-20
3218.394733,9
3218.395727,30
3218.396698,56
3218.397747,66
3218.398716,29
3218.399723,-26
3218.400702,-72
3218.401719,-87
3218.402702,-115
3218.403735,-163
3218.404747,-185
3218.405689,-170
3218.406721,-134
3218.407748,-81
3218.408695,-32
3218.409731,13
3218.410824,51
3218.411744,69
3218.412726,66
3218.413715,34
3218.414721,-17
3218.41573,-73
3218.416709,-131
3218.417715,-167
3218.418712,-161
3218.419702,-146
3218.420728,-145
3218.42174,-158
3218.422691,-144
3218.423688,-115
3218.424723,-74
3218.425711,-27
3218.426717,18
3218.427727,57
3218.428719,73
3218.429709,64
3218.430719,26
3218.43173,-29
3218.432717,-78
3218.433738,-104
3218.434716,-121
3218.43571,-140
3218.43673,-154
3218.437751,-150
3218.438706,-111
3218.439702,-77
3218.440732,-67
3218.442773,-69
3218.442821,-72
3218.444518,-52
3218.444743,-7
3218.445727,32
3218.446733,33
3218.447718,4
3218.448713,-43
3218.449724,-78
3218.450706,-104
3218.451692,-114
3218.452721,-124
3218.453694,-141
3218.454728,-143
3218.45574,-131
3218.456746,-112
3218.457701,-84
3218.458695,-38
3218.459701,7
3218.460705,26
3218.461712,13
3218.462719,-20
3218.46372,-52
3218.464732,-74
3218.465706,-83
3218.466692,-85
3218.467749,-97
3218.468689,-126
3218.46971,-137
3218.470742,-108
3218.471714,-58
3218.472695,-22
3218.473678,-19
3218.474677,-41
3218.475691,-50
3218.476678,-35
3218.477702,-2
3218.478751,14
3218.479699,-2
3218.480705,-18
3218.481687,-37
3218.482703,-53
3218.483706,-71
3218.484699,-92
3218.485687,-111
3218.486721,-127
3218.487692,-141
3218.488707,-128
3218.489735,-95
3218.490691,-55
3218.491686,-36
3218.492679,-18
3218.493739,6
3218.494726,22
3218.495714,32
3218.49672,26
3218.497748,7
3218.498691,-40
3218.499707,-98
3218.500724,-146
3218.501701,-162
3218.502699,-157
3218.503687,-136
3218.504688,-124
3218.505684,-107
3218.506699,-66
3218.507692,-14
3218.508686,-3
3218.509688,-6
3218.510668,11
3218.511713,45
3218.512699,50
3218.51372,21
3218.514738,-34
3218.515701,-92
3218.5167,-129
3218.517699,-142
3218.518693,-140
3218.519699,-135
3218.520702,-123
3218.521703,-96
3218.52273,-64
3218.523719,-43
3218.524689,-18
3218.525657,12
3218.526687,35
3218.527691,51
3218.528715,47
3218.529706,29
3218.530714,7
3218.531687,-20
3218.532722,-41
3218.533714,-71
3218.534704,-108
3218.535697,-137
3218.536725,-155
3218.537696,-166
3218.538653,-146
3218.539681,-105
3218.540694,-61
3218.541711,-28
3218.54267,-8
3218.543668,-2
3218.544655,2
3218.545718,-2
3218.546689,-3
3218.547702,-8
3218.548694,-37
3218.549688,-90
3218.550693,-127
3218.551711,-119
3218.552688,-113
3218.553667,-135
3218.554692,-136
3218.555669,-126
3218.556684,-89
3218.557666,-41
3218.558701,-13
3218.55967,-6
3218.560683,20
3218.561665,62
3218.562695,71
3218.5637,35
3218.564698,-5
3218.565694,-41
3218.566673,-87
3218.567686,-116
3218.56867,-127
3218.569663,-132
3218.570717,-137
3218.571672,-133
3218.572714,-118
3218.573668,-82
3218.57467,-40
3218.575656,-3
3218.576677,31
3218.577645,42
3218.578659,36
3218.579697,21
3218.580694,24
3218.581691,31
3218.582689,7
3218.5837,-42
3218.584687,-90
3218.585685,-122
3218.586692,-130
3218.587688,-121
3218.588686,-98
3218.589716,-54
3218.590675,-12
3218.591663,7
3218.592722,6
3218.593653,13
3218.594676,31
3218.59566,57
3218.596693,57
3218.597694,32
3218.598711,-12
3218.59973,-53
3218.60071,-90
3218.601672,-117
3218.602704,-125
3218.603713,-119
3218.604681,-102
3218.605671,-77
3218.606679,-38
3218.607675,-9
3218.608668,8
3218.609673,19
3218.610725,24
3218.611686,23
3218.612666,18
3218.613694,3
3218.614695,-13
3218.615684,-13
3218.61668,-23
3218.617691,-31
3218.618678,-39
3218.619672,-38
3218.620753,-32
3218.621682,-23
3218.622676,-4
3218.623666,20
3218.624664,43
3218.625676,61
3218.626677,71
3218.627667,76
3218.628663,80
3218.629655,81
3218.630691,71
3218.631686,40
3218.632696,-4
3218.633672,-32
3218.634682,-20
3218.635676,-5
3218.636703,-6
3218.637696,6
3218.638676,35
3218.639686,62
3218.64071,93
3218.641656,122
3218.642635,131
3218.643679,125
3218.644668,121
3218.64565,124
3218.646677,119
3218.647684,106
3218.648679,75
3218.649684,37
3218.650684,1
3218.65169,-39
3218.652694,-60
3218.653702,-61
3218.654679,-54
3218.655666,-51
3218.656661,-47
3218.657674,-28
3218.65866,1
3218.659648,24
3218.660674,46
3218.661645,67
3218.662666,75
3218.663651,48
3218.664698,-8
3218.665694,-60
3218.666695,-90
3218.667679,-95
3218.668692,-99
3218.669679,-112
3218.670796,-108
3218.671694,-93
3218.672684,-59
3218.673665,-23
3218.674672,7
3218.675648,19
3218.676665,38
3218.677668,42
3218.678666,19
3218.679641,-19
3218.680673,-60
3218.681664,-91
3218.682684,-107
3218.683689,-135
3218.684651,-164
3218.685661,-179
3218.686687,-184
3218.687681,-174
3218.688679,-132
3218.68968,-68
3218.690675,-11
3218.691665,29
3218.69265,55
3218.693664,72
3218.694638,83
3218.695638,97
3218.696664,109
3218.697653,77
3218.698697,6
3218.699697,-70
3218.700674,-134
3218.701673,-175
3218.702672,-190
3218.703701,-173
3218.70468,-140
3218.705674,-109
3218.706673,-85
3218.707666,-63
3218.708669,-31
3218.709674,11
3218.710651,37
3218.711644,46
3218.712656,43
3218.713649,31
3218.714656,9
3218.715686,-40
3218.71669,-84
3218.717668,-113
3218.718673,-120
3218.719669,-123
3218.720759,-142
3218.721653,-140
3218.722668,-120
3218.723669,-91
3218.724681,-38
3218.725659,26
3218.726665,59
3218.727645,51
3218.728628,11
3218.72963,-27
3218.730645,-27
3218.731687,-18
3218.732679,-15
3218.733685,-17
3218.734684,-26
3218.735669,-22
3218.736718,-3
3218.738092,18
3218.739001,36
3218.739666,62
3218.740846,88
3218.741714,129
3218.742645,189
3218.743634,262
3218.744652,325
3218.745656,361
3218.74665,370
3218.747653,358
3218.748695,333
3218.74967,312
3218.750646,299
3218.751638,300
3218.752679,298
3218.753689,286
3218.754687,274
3218.755675,268
3218.756676,257
3218.757679,249
3218.758664,254
3218.759638,260
3218.760653,238
3218.761645,185
3218.762645,114
3218.763656,40
3218.764644,-46
3218.765666,-117
3218.766686,-151
3218.767673,-161
3218.768688,-157
3218.76971,-151
3218.770708,-136
3218.771672,-110
3218.772673,-76
3218.773664,-62
3218.774635,-55
3218.775641,-54
3218.776667,-58
3218.77766,-55
3218.778645,-58
3218.779636,-60
3218.780657,-64
3218.781629,-77
3218.782684,-101
3218.783679,-120
3218.78469,-136
3218.785668,-143
3218.786689,-140
3218.787682,-140
3218.788677,-113
3218.789674,-74
3218.790658,-32
3218.791648,12
3218.792636,43
3218.793661,60
3218.794649,80
3218.795643,106
3218.796636,121
3218.797633,106
3218.798671,71
3218.79992,44
3218.80091,5
3218.801901,-47
3218.802904,-83
3218.80399,-91
3218.804884,-64
3218.805923,-27
3218.806886,17
3218.807897,56
3218.808913,82
3218.809878,102
3218.810893,106
3218.811896,93
3218.812896,61
3218.813892,13
3218.814883,-43
3218.815876,-102
3218.816904,-141
3218.817923,-144
3218.81888,-130
3218.819875,-109
3218.820889,-105
3218.821875,-99
3218.822842,-66
3218.823857,-35
3218.824883,-14
3218.825894,18
3218.826853,43
3218.827873,57
3218.828834,62
3218.829878,59
3218.830855,41
3218.831863,14
3218.832853,-19
3218.833832,-41
3218.834843,-55
3218.835828,-74
3218.836849,-87
3218.837903,-95
3218.83885,-85
3218.839845,-56
3218.84083,-22
3218.841851,24
3218.84286,83
3218.843827,138
3218.844827,153
3218.845837,128
3218.846817,97
3218.847812,66
3218.848818,10
3218.849806,-37
3218.850801,-62
3218.85181,-78
3218.852802,-88
3218.853843,-90
3218.85479,-75
3218.855801,-48
3218.856817,-8
3218.857818,30
3218.858801,60
3218.859786,87
3218.860799,96
3218.861791,89
3218.862794,75
3218.863782,50
3218.864794,8
3218.865772,-31
3218.866781,-67
3218.867788,-105
3218.868787,-120
3218.869769,-96
3218.870847,-58
3218.871806,-24
3218.872796,-11
3218.873786,5
3218.874747,22
3218.87577,45
3218.876766,79
3218.87777,116
3218.878754,140
3218.879762,140
3218.880749,122
3218.881745,80
3218.882738,37
3218.883749,9
3218.884745,-23
3218.885731,-63
3218.886722,-98
3218.887754,-114
3218.888747,-90
3218.889794,-43
3218.89073,9
3218.891776,54
3218.89273,106
3218.893716,158
3218.894732,194
3218.895735,196
3218.896726,171
3218.897743,122
3218.898728,72
3218.899706,33
3218.900726,11
3218.901721,2
3218.902713,-7
3218.903736,-14
3218.904716,-23
3218.905724,-13
3218.906728,18
3218.907701,57
3218.908717,96
3218.909705,136
3218.910688,159
3218.911699,155
3218.912688,139
3218.913695,130
3218.914682,124
3218.915696,108
3218.916669,75
3218.917674,29
3218.918698,-9
3218.919673,-31
3218.920697,-44
3218.921694,-33
3218.922672,9
3218.923663,51
3218.924669,83
3218.925655,107
3218.926647,132
3218.927656,147
3218.928671,149
3218.929653,133
3218.930652,108
3218.931654,71
3218.932656,35
3218.933667,16
3218.934643,6
3218.935648,2
3218.936653,4
3218.937691,9
3218.938645,31
3218.939632,59
3218.940638,83
3218.941631,106
3218.942636,134
3218.943641,166
3218.94464,200
3218.945643,222
3218.946653,227
3218.947632,209
3218.948631,176
3218.949661,159
3218.95065,161
3218.951641,160
3218.952647,161
3218.953646,185
3218.954613,204
3218.955653,202
3218.956651,193
3218.95764,190
3218.958634,192
3218.959634,190
3218.960627,195
3218.961612,207
3218.962664,218
3218.963624,213
3218.964658,174
3218.965645,137
3218.966643,115
3218.967635,104
3218.968663,98
3218.969658,99
3218.970685,100
3218.971628,113
3218.972631,139
3218.973629,156
3218.974648,153
3218.975628,161
3218.976613,194
3218.977618,257
3218.978633,321
3218.979649,344
3218.980644,323
3218.98163,291
3218.982671,277
3218.983645,263
3218.984647,236
3218.985625,215
3218.986651,203
3218.987635,183
3218.988635,161
3218.989685,175
3218.990666,211
3218.991609,243
3218.99264,264
3218.993647,286
3218.994615,307
3218.995614,311
3218.996651,291
3218.99764,245
3218.99865,192
3218.999634,168
3219.000666,170
3219.001653,171
3219.002625,172
3219.003622,181
3219.004651,198
3219.005633,215
3219.006648,245
3219.007608,281
3219.008625,320
3219.009628,361
3219.010615,390
3219.01161,383
3219.012622,342
3219.013657,296
3219.014625,244
3219.015633,198
3219.016649,170
3219.017623,158
3219.018655,150
3219.019631,150
3219.020635,141
3219.021625,135
3219.022626,148
3219.023606,176
3219.024726,207
3219.025605,222
3219.026635,223
3219.027606,227
3219.028604,229
3219.029618,214
3219.030656,194
3219.031633,162
3219.032652,132
3219.033646,111
3219.034664,105
3219.035635,99
3219.036656,84
3219.037622,71
3219.038621,69
3219.039631,81
3219.040645,92
3219.041638,100
3219.042623,103
3219.043609,93
3219.044623,75
3219.045617,59
3219.046612,57
3219.047641,34
3219.048649,-12
3219.049648,-51
3219.050633,-77
3219.051631,-98
3219.052626,-106
3219.053638,-102
3219.05462,-84
3219.055622,-70
3219.056606,-72
3219.057611,-67
3219.058616,-28
3219.059622,26
3219.06062,48
3219.061631,28
3219.062634,-28
3219.063677,-77
3219.064643,-80
3219.065627,-54
3219.066706,-40
3219.067624,-69
3219.068626,-115
3219.069622,-151
3219.070628,-154
3219.07164,-126
3219.072632,-98
3219.073622,-74
3219.074623,-43
3219.075615,-8
3219.07661,24
3219.077621,42
3219.078596,51
3219.079613,37
3219.080608,11
3219.081601,-26
3219.082626,-77
3219.083622,-109
3219.084641,-127
3219.085617,-140
3219.086643,-158
3219.08764,-151
3219.088639,-112
3219.089685,-55
3219.090607,-10
3219.091604,26
3219.092617,51
3219.09361,88
3219.094617,100
3219.09561,73
3219.096604,11
3219.097608,-53
3219.098636,-92
3219.099622,-111
3219.100632,-121
3219.101627,-132
3219.10264,-138
3219.103596,-123
3219.104632,-99
3219.105606,-82
3219.106612,-56
3219.107617,-35
3219.108638,-17
3219.109604,1
3219.11062,2
3219.111651,-2
3219.112603,-24
3219.113596,-87
3219.114609,-167
3219.115624,-220
3219.116623,-212
3219.117639,-165
3219.11868,-143
3219.119638,-154
3219.120648,-157
3219.1216,-138
3219.122751,-114
3219.12363,-74
3219.124608,-53
3219.125688,-50
3219.126589,-32
3219.127597,8
3219.128604,25
3219.129605,17
3219.130653,6
3219.131598,-26
3219.132629,-74
3219.133605,-114
3219.134657,-130
3219.135624,-127
3219.136631,-120
3219.137645,-107
3219.138611,-85
3219.139621,-63
3219.140611,-45
3219.141613,-23
3219.142602,4
3219.143602,30
3219.144621,45
3219.145571,25
3219.146606,-19
3219.147577,-69
3219.148608,-109
3219.149616,-128
3219.15061,-141
3219.151623,-156
3219.15264,-171
3219.153969,-167
3219.15506,-150
3219.155984,-121
3219.156614,-77
3219.157606,-26
3219.158596,18
3219.159601,44
3219.160598,54
3219.161587,52
3219.162616,43
3219.163625,45
3219.164597,40
3219.16573,17
3219.166616,-17
3219.167626,-40
3219.168655,-46
3219.169636,-43
3219.170608,-77
3219.171581,-105
3219.172665,-104
3219.173604,-102
3219.174609,-100
3219.17561,-76
3219.176605,-35
3219.177656,2
3219.178608,26
3219.179596,33
3219.180591,10
3219.181576,-35
3219.182587,-75
3219.183613,-118
3219.184626,-149
3219.185602,-166
3219.186652,-167
3219.187616,-154
3219.18873,-115
3219.189595,-85
3219.190604,-70
3219.191587,-38
3219.19261,12
3219.193605,54
3219.194644,81
3219.195599,81
3219.196605,59
3219.19759,35
3219.198581,32
3219.199569,21
3219.200675,-8
3219.201624,-61
3219.203079,-126
3219.204122,-170
3219.204597,-175
3219.205616,-136
3219.206604,-74
3219.207627,-30
3219.208607,-7
3219.209609,18
3219.21059,48
3219.211677,73
3219.212593,81
3219.213621,68
3219.21462,14
3219.215574,-63
3219.216588,-118
3219.217647,-121
3219.219002,-96
3219.219611,-86
3219.220581,-93
3219.221634,-90
3219.222598,-70
3219.223615,-27
3219.224594,22
3219.225598,65
3219.226583,102
3219.227604,115
3219.228598,114
3219.229583,91
3219.230623,47
3219.231581,1
3219.232589,-60
3219.23358,-124
3219.234605,-152
3219.235604,-161
3219.236605,-159
3219.237618,-144
3219.238616,-114
3219.239587,-79
3219.240596,-39
3219.241604,5
3219.242595,49
3219.243577,85
3219.244575,83
3219.245575,59
3219.24659,21
3219.247592,-32
3219.248601,-93
3219.2496,-122
3219.250581,-122
3219.251607,-111
3219.252611,-97
3219.253637,-87
3219.254645,-86
3219.255575,-86
3219.256612,-69
3219.257602,-35
3219.258606,6
3219.259602,46
3219.260568,82
3219.261581,110
3219.26259,119
3219.263606,99
3219.264598,53
3219.265567,-14
3219.266575,-78
3219.267601,-112
3219.268616,-110
3219.269603,-99
3219.270617,-87
3219.271596,-67
3219.272635,-49
3219.273604,-33
3219.274587,-4
3219.275608,30
3219.276596,58
3219.277602,72
3219.278541,71
3219.279603,44
3219.280596,4
3219.281603,-39
3219.282601,-78
3219.283583,-106
3219.284608,-103
3219.2856,-67
3219.286611,-40
3219.287616,-34
3219.28861,-24
3219.289599,-5
3219.290603,16
3219.291591,37
3219.292599,58
3219.293612,92
3219.294606,115
3219.295586,110
3219.296588,79
3219.29758,23
3219.298585,-42
3219.299571,-83
3219.30058,-106
3219.30158,-125
3219.302603,-143
3219.303584,-144
3219.3046,-120
3219.305608,-76
3219.306595,-38
3219.307595,-27
3219.3086,-23
3219.309575,-2
3219.310586,24
3219.311666,47
3219.31258,57
3219.31366,45
3219.314565,11
3219.315572,-20
3219.316579,-30
3219.31757,-39
3219.318599,-53
3219.319613,-72
3219.320649,-69
3219.321585,-61
3219.322597,-54
3219.323597,-30
3219.324596,9
3219.325713,46
3219.32659,75
3219.327671,87
3219.328586,79
3219.329607,46
3219.330568,-2
3219.331557,-41
3219.332562,-78
3219.333551,-109
3219.334584,-112
3219.335568,-96
3219.336615,-89
3219.337714,-77
3219.338602,-36
3219.339546,4
3219.340607,18
3219.341579,27
3219.342599,43
3219.343559,61
3219.344573,71
3219.345603,85
3219.346591,88
3219.347562,58
3219.348694,-12
3219.349555,-75
3219.35057,-112
3219.351578,-121
3219.352584,-114
3219.353581,-103
3219.354601,-67
3219.355591,-18
3219.356594,33
3219.357584,77
3219.358586,111
3219.359627,137
3219.360573,149
3219.361564,143
3219.36258,119
3219.36358,101
3219.364565,55
3219.365557,-20
3219.36655,-70
3219.367582,-89
3219.368569,-95
3219.369567,-91
3219.370694,-73
3219.371594,-61
3219.372605,-50
3219.373625,-38
3219.374588,-21
3219.375591,13
3219.376587,59
3219.377584,96
3219.378601,96
3219.379551,81
3219.380556,58
3219.381602,25
3219.382561,-25
3219.383569,-82
3219.384577,-125
3219.385562,-140
3219.386548,-133
3219.387587,-116
3219.388584,-76
3219.389631,-26
3219.390595,16
3219.391583,42
3219.392579,65
3219.393664,78
3219.394604,74
3219.395558,54
3219.396572,29
3219.397574,11
3219.398568,-12
3219.399582,-36
3219.400579,-68
3219.401572,-102
3219.402547,-116
3219.403578,-99
3219.404606,-63
3219.405688,-15
3219.406595,36
3219.407566,77
3219.408579,107
3219.409586,118
3219.410578,118
3219.411606,109
3219.412572,98
3219.413549,84
3219.414567,49
3219.415573,1
3219.416574,-37
3219.417568,-48
3219.418549,-44
3219.419563,-53
3219.420564,-65
3219.421586,-56
3219.422578,-45
3219.423585,-35
3219.424596,-8
3219.425579,43
3219.426574,101
3219.427578,159
3219.428561,191
3219.42956,178
3219.430569,125
3219.431554,55
3219.432552,-13
3219.433548,-64
3219.434539,-87
3219.43555,-91
3219.43656,-86
3219.437566,-56
3219.438599,-12
3219.43957,13
3219.440578,32
3219.441561,55
3219.442566,73
3219.44359,91
3219.444565,104
3219.445595,95
3219.446601,62
3219.447573,7
3219.448548,-54
3219.449562,-90
3219.450559,-98
3219.451592,-112
3219.452638,-127
3219.454086,-117
3219.454611,-70
3219.455871,-3
3219.456597,56
3219.457582,78
3219.458579,66
3219.459569,59
3219.460562,67
3219.461564,82
3219.462569,87
3219.463566,76
3219.464553,39
3219.465576,-11
3219.466546,-62
3219.467578,-106
3219.468535,-139
3219.46957,-150
3219.470559,-127
3219.47157,-89
3219.472585,-46
3219.473574,4
3219.474569,57
3219.475593,100
3219.476558,121
3219.477569,138
3219.478536,147
3219.479566,139
3219.480565,112
3219.481565,48
3219.482544,-21
3219.483557,-51
3219.484568,-65
3219.485566,-61
3219.486569,-39
3219.487558,-34
3219.488566,-37
3219.489578,-38
3219.490557,-32
3219.49161,-21
3219.492566,-9
3219.493548,27
3219.494564,72
3219.495529,100
3219.496551,123
3219.497546,136
3219.498538,121
3219.499534,81
3219.500529,26
3219.501532,-10
3219.502539,-30
3219.503571,-46
3219.504573,-59
3219.505539,-61
3219.506612,-47
3219.507573,-3
3219.508585,49
3219.50957,67
3219.51055,63
3219.51155,70
3219.512547,78
3219.51358,66
3219.514543,38
3219.515552,-3
3219.516533,-32
3219.517524,-29
3219.518522,-16
3219.519554,-2
3219.520517,17
3219.521535,36
3219.522566,46
3219.523562,55
3219.524566,58
3219.525546,70
3219.526562,104
3219.527557,134
3219.528565,142
3219.529557,120
3219.530564,83
3219.531556,35
3219.532541,-10
3219.533549,-36
3219.534526,-47
3219.53554,-53
3219.536559,-47
3219.537513,-30
3219.538553,-6
3219.539525,30
3219.540574,66
3219.541602,109
3219.542559,160
3219.543569,205
3219.544579,229
3219.54555,221
3219.54654,191
3219.54754,143
3219.548527,84
3219.549537,33
3219.550544,-7
3219.551531,-12
3219.552518,18
3219.553542,51
3219.554549,77
3219.555551,97
3219.556547,117
3219.557557,139
3219.558583,170
3219.559565,199
3219.56058,201
3219.561539,193
3219.562539,176
3219.563515,136
3219.56454,108
3219.56555,91
3219.566519,56
3219.567544,12
3219.568517,-41
3219.569527,-76
3219.570557,-68
3219.571505,-25
3219.572515,30
3219.573521,84
3219.574573,122
3219.575544,154
3219.576557,185
3219.577561,193
3219.578548,174
3219.579567,159
3219.580528,131
3219.581532,78
3219.582537,35
3219.583515,13
3219.584522,-2
3219.58551,-18
3219.586524,-26
3219.587527,-38
3219.588525,-42
3219.589506,-29
3219.590519,-4
3219.591561,30
3219.592552,64
3219.593556,90
3219.594525,98
3219.595545,80
3219.596544,61
3219.597532,48
3219.598569,29
3219.599536,16
3219.600511,11
3219.601502,7
3219.602522,-15
3219.603531,-35
3219.6045,-31
3219.605498,-19
3219.606579,6
3219.607526,18
3219.608572,31
3219.609546,50
3219.610525,77
3219.611529,97
3219.61253,92
3219.613525,63
3219.614524,27
3219.615524,-15
3219.616528,-52
3219.617531,-77
3219.61851,-87
3219.619504,-83
3219.620479,-50
3219.621494,-7
3219.622495,20
3219.623521,25
3219.6245,45
3219.625547,77
3219.626526,97
3219.627527,100
3219.628524,81
3219.629534,36
3219.630528,-22
3219.631526,-76
3219.632516,-103
3219.633517,-121
3219.634557,-148
3219.635515,-153
3219.636516,-125
3219.63752,-94
3219.63849,-65
3219.639497,-24
3219.640501,38
3219.641499,98
3219.642541,147
3219.643534,164
3219.644519,153
3219.645522,135
3219.646516,114
3219.647494,83
3219.648506,47
3219.649502,2
3219.650514,-54
3219.651505,-68
3219.652502,-27
3219.653507,7
3219.654478,10
3219.655506,21
3219.656493,51
3219.65751,100
3219.658493,164
3219.659545,224
3219.660533,275
3219.66152,318
3219.662527,344
3219.663493,350
3219.664533,340
3219.665502,331
3219.666514,333
3219.667504,348
3219.668501,367
3219.669573,380
3219.670519,393
3219.674218,409
3219.674233,423
3219.674249,431
3219.674482,436
3219.675505,426
3219.676537,411
3219.677525,387
3219.678588,344
3219.679518,288
3219.680509,215
3219.681486,109
3219.682491,3
3219.683493,-91
3219.684506,-182
3219.685506,-255
3219.686514,-287
3219.687487,-291
3219.688478,-265
3219.689485,-220
3219.690483,-163
3219.691499,-109
3219.692526,-51
3219.693522,-4
3219.694499,2
3219.695504,-28
3219.696515,-59
3219.697497,-89
3219.698503,-113
3219.699519,-126
3219.700496,-125
3219.701536,-130
3219.702492,-140
3219.703528,-145
3219.704508,-132
3219.705491,-101
3219.706482,-56
3219.707514,-6
3219.708494,50
3219.709524,96
3219.710519,116
3219.711507,119
3219.71253,129
3219.713493,129
3219.714491,96
3219.715496,58
3219.716513,30
3219.717743,14
3219.718757,-10
3219.719762,-17
3219.720776,-16
3219.72183,-10
3219.722735,-4
3219.723763,10
3219.724756,26
3219.725742,46
3219.726761,82
3219.727744,101
3219.728726,92
3219.72973,89
3219.730722,91
3219.731741,71
3219.732741,45
3219.733736,35
3219.734763,26
3219.735711,-5
3219.736746,-26
3219.737724,-27
3219.738724,-26
3219.73972,-10
3219.740709,19
3219.741722,61
3219.742731,121
3219.74373,169
3219.744728,173
3219.745762,143
3219.746703,93
3219.748204,35
3219.748683,-6
3219.749703,-12
3219.750695,-8
3219.751694,1
3219.752667,2
3219.753693,-14
3219.754687,-27
3219.75568,-25
3219.75668,12
3219.757683,45
3219.758665,67
3219.759673,81
3219.760714,87
3219.761666,103
3219.762665,119
3219.763675,100
3219.764665,41
3219.765725,-7
3219.766679,-27
3219.767672,-37
3219.76866,-50
3219.769666,-55
3219.770657,-46
3219.771659,-24
3219.772668,3
3219.773638,34
3219.774649,76
3219.775651,123
3219.776652,148
3219.77764,162
3219.778638,171
3219.779616,166
3219.780648,131
3219.781612,81
3219.782639,38
3219.783615,5
3219.784633,-21
3219.785627,-34
3219.786651,-40
3219.787631,-39
3219.788601,-21
3219.789617,24
3219.790611,73
3219.791608,105
3219.792632,114
3219.79362,120
3219.794605,137
3219.795613,152
3219.796592,150
3219.797629,119
3219.798605,85
3219.799601,56
3219.800608,29
3219.801586,3
3219.802612,-22
3219.803625,-13
3219.804595,14
3219.805596,44
3219.806591,77
3219.807614,102
3219.808575,137
3219.809605,177
3219.81061,218
3219.81162,225
3219.812572,193
3219.813611,130
3219.814571,50
3219.815583,-2
3219.816558,-11
3219.817568,11
3219.818576,24
3219.819543,18
3219.820592,25
3219.821555,56
3219.822571,97
3219.823557,132
3219.824527,156
3219.825554,163
3219.826566,166
3219.827542,172
3219.828536,177
3219.829523,167
3219.830547,138
3219.831504,98
3219.832522,60
3219.83351,27
3219.834534,9
3219.835537,6
3219.836531,14
3219.837489,37
3219.838515,74
3219.839584,123
3219.840527,173
3219.841525,211
3219.842559,229
3219.843485,229
3219.844498,215
3219.845518,180
3219.846493,150
3219.847499,148
3219.848484,165
3219.849491,156
3219.850496,105
3219.851487,37
3219.85247,-19
3219.853482,-24
3219.854547,11
3219.855482,56
3219.856472,99
3219.857465,153
3219.858483,214
3219.859488,255
3219.860463,277
3219.861489,287
3219.862475,284
3219.863482,265
3219.864482,233
3219.865488,197
3219.866471,164
3219.867486,144
3219.868477,122
3219.869453,99
3219.870485,75
3219.871457,77
3219.872463,113
3219.873494,149
3219.874472,189
3219.875471,250
3219.876475,303
3219.877469,316
3219.878474,304
3219.879463,272
3219.880455,243
3219.881456,243
3219.882462,251
3219.883487,235
3219.884447,199
3219.88547,159
3219.886468,137
3219.887489,149
3219.888486,185
3219.889464,226
3219.890484,258
3219.891477,267
3219.892494,281
3219.893468,312
3219.894476,342
3219.895455,350
3219.896458,330
3219.897451,283
3219.898445,240
3219.899476,222
3219.900454,213
3219.901451,221
3219.902462,239
3219.903494,237
3219.904489,248
3219.905486,264
3219.906497,263
3219.907487,260
3219.908454,268
3219.909466,277
3219.910459,294
3219.911472,317
3219.912468,317
3219.913456,308
3219.914432,292
3219.915489,271
3219.916439,253
3219.917452,258
3219.918461,277
3219.919431,296
3219.92043,303
3219.921498,292
3219.922456,298
3219.923461,335
3219.924483,386
3219.925477,423
3219.926495,437
3219.927457,432
3219.92846,406
3219.929443,370
3219.930447,332
3219.931488,281
3219.932492,227
3219.93346,191
3219.934466,170
3219.935446,153
3219.936449,154
3219.93744,172
3219.938456,200
3219.939472,235
3219.940438,270
3219.941451,275
3219.942472,258
3219.943457,251
3219.944471,240
3219.945469,220
3219.946507,199
3219.947442,184
3219.948443,177
3219.949446,152
3219.950446,108
3219.951445,77
3219.952434,60
3219.953443,45
3219.95443,42
3219.955481,63
3219.956491,105
3219.957486,141
3219.958483,167
3219.959447,185
3219.960434,200
3219.961467,214
3219.962431,213
3219.963438,196
3219.96445,165
3219.965455,119
3219.966441,54
3219.967434,-3
3219.968473,-35
3219.969448,-43
3219.970452,-36
3219.971428,-42
3219.972471,-47
3219.973462,-30
3219.974497,2
3219.975454,35
3219.976495,69
3219.977474,94
3219.978464,100
3219.979468,85
3219.980478,39
3219.981442,-9
3219.982431,-30
3219.983433,-47
3219.984423,-68
3219.985424,-91
3219.986433,-101
3219.987422,-95
3219.988478,-70
3219.989453,-36
3219.990515,-13
3219.99149,7
3219.992516,51
3219.99347,108
3219.994437,144
3219.995462,154
3219.99647,134
3219.997436,69
3219.99844,2
3219.999435,-48
3220.000441,-73
3220.001499,-105
3220.002409,-151
3220.003407,-182
3220.004418,-182
3220.005421,-157
3220.006431,-119
3220.007431,-86
3220.008552,-39
3220.009474,18
3220.010449,71
3220.011435,92
3220.012431,75
3220.013428,33
3220.01443,-23
3220.015424,-76
3220.016411,-122
3220.017485,-164
3220.018419,-189
3220.019407,-197
3220.02042,-175
3220.021383,-140
3220.022416,-101
3220.023447,-61
3220.024478,-47
3220.025441,-38
3220.026457,-4
3220.027427,42
3220.02845,59
3220.029495,35
3220.030442,-2
3220.031416,-37
3220.032439,-69
3220.033422,-90
3220.034426,-98
3220.035415,-100
3220.036412,-99
3220.037441,-89
3220.03847,-67
3220.039419,-37
3220.040463,-8
3220.041457,24
3220.042445,46
3220.043439,51
3220.044433,36
3220.045423,3
3220.046405,-38
3220.047432,-59
3220.048401,-72
3220.049409,-91
3220.050409,-109
3220.051406,-130
3220.052404,-139
3220.053389,-128
3220.054443,-119
3220.055403,-106
3220.056399,-78
3220.057415,-47
3220.058427,7
3220.059433,56
3220.060406,89
3220.061416,105
3220.062395,95
3220.063413,50
3220.064417,-13
3220.065397,-58
3220.066415,-82
3220.06745,-90
3220.068362,-99
3220.069405,-104
3220.070392,-107
3220.071412,-109
3220.072423,-94
3220.073364,-56
3220.074426,-9
3220.07541,41
3220.076427,67
3220.077416,66
3220.078405,65
3220.079413,71
3220.080395,56
3220.081385,10
3220.082404,-51
3220.083399,-100
3220.084408,-139
3220.085397,-168
3220.086393,-177
3220.087396,-149
3220.08841,-97
3220.089428,-46
3220.090394,-21
3220.09142,-11
3220.092457,18
3220.093415,41
3220.09447,58
3220.095415,70
3220.096435,85
3220.097409,84
3220.098413,44
3220.099442,-14
3220.10039,-65
3220.10141,-99
3220.102404,-118
3220.103444,-119
3220.104416,-99
3220.10537,-73
3220.106423,-46
3220.107393,-22
3220.108419,14
3220.109424,55
3220.110402,93
3220.111423,109
3220.112405,100
3220.113399,83
3220.114405,33
3220.115392,-36
3220.11641,-85
3220.117459,-109
3220.118369,-124
3220.119395,-113
3220.120414,-79
3220.121398,-45
3220.122384,-17
3220.123381,10
3220.124371,15
