timestamp,New ECG Sample
5055.745167,-62
5055.746334,-33
5055.747137,-42
5055.748129,-43
5055.749242,-33
5055.750123,-52
5055.751084,-73
5055.752196,-108
5055.753081,-146
5055.754084,-178
5055.755114,-183
5055.756055,-146
5055.757121,-125
5055.758099,-116
5055.759069,-119
5055.76009,-123
5055.761028,-165
5055.762123,-167
5055.763618,-122
5055.764003,-90
5055.765015,-77
5055.766023,-94
5055.76703,-100
5055.767976,-104
5055.769029,-153
5055.770208,-214
5055.770985,-247
5055.772284,-292
5055.77298,-291
5055.773948,-239
5055.77494,-197
5055.775938,-140
5055.776974,-115
5055.777985,-124
5055.779017,-111
5055.779902,-113
5055.78092,-112
5055.781901,-66
5055.78302,-32
5055.783927,-30
5055.785106,-17
5055.785867,-2
5055.786935,16
5055.787862,23
5055.788875,14
5055.789835,-20
5055.79081,-71
5055.791839,-153
5055.79287,-211
5055.793798,-183
5055.794829,-115
5055.795796,-110
5055.796802,-145
5055.797819,-151
5055.79876,-114
5055.799804,-25
5055.800807,12
5055.801787,-56
5055.802828,-83
5055.803775,-40
5055.804779,-1
5055.805757,-63
5055.806785,-185
5055.807754,-259
5055.808761,-275
5055.809781,-284
5055.810735,-263
5055.811693,-222
5055.812825,-201
5055.813797,-186
5055.814664,-142
5055.815731,-106
5055.816664,-122
5055.817749,-150
5055.818793,-142
5055.819644,-118
5055.820675,-58
5055.82165,-26
5055.822639,-73
5055.823639,-130
5055.824658,-154
5055.825629,-181
5055.826634,-175
5055.827625,-189
5055.828595,-242
5055.829601,-239
5055.830565,-175
5055.831524,-98
5055.832581,-35
5055.834239,46
5055.835738,56
5055.835934,-11
5055.836542,-80
5055.8375,-65
5055.838554,-19
5055.839501,6
5055.840576,-28
5055.841483,-105
5055.842467,-143
5055.843477,-119
5055.844491,-91
5055.845471,-105
5055.846502,-134
5055.847458,-129
5055.848504,-83
5055.84994,-43
5055.85176,-27
5055.851788,-39
5055.85244,-52
5055.853472,-58
5055.854378,-80
5055.855425,-128
5055.856431,-117
5055.857415,-116
5055.858384,-162
5055.859435,-189
5055.860394,-177
5055.861343,-191
5055.862339,-229
5055.863642,-249
5055.864346,-278
5055.865326,-330
5055.866315,-345
5055.867352,-300
5055.868315,-256
5055.869371,-226
5055.870291,-180
5055.871276,-153
5055.872341,-153
5055.873285,-92
5055.874373,-9
5055.875386,20
5055.876255,-26
5055.877273,-68
5055.878263,-42
5055.879263,23
5055.880246,71
5055.881221,122
5055.882289,135
5055.883226,142
5055.884226,141
5055.885529,97
5055.88622,14
5055.88719,-115
5055.888185,-205
5055.889177,-196
5055.890145,-174
5055.891118,-165
5055.892176,-181
5055.893162,-174
5055.894138,-126
5055.89515,-94
5055.896157,-67
5055.897138,-51
5055.898209,-102
5055.899163,-155
5055.900134,-116
5055.90112,-44
5055.902089,-62
5055.903064,-105
5055.904067,-132
5055.905096,-110
5055.906046,-82
5055.907069,-51
5055.908035,11
5055.909009,47
5055.910051,20
5055.911021,-68
5055.911999,-137
5055.913017,-182
5055.913995,-237
5055.915012,-267
5055.915973,-290
5055.916972,-288
5055.917992,-267
5055.919227,-261
5055.920003,-227
5055.921068,-173
5055.921965,-106
5055.92302,-32
5055.923926,69
5055.924921,172
5055.925916,184
5055.926958,80
5055.927903,-56
5055.928934,-166
5055.930021,-177
5055.930943,-151
5055.931894,-153
5055.932865,-186
5055.933876,-168
5055.934867,-72
5055.935863,10
5055.936856,-13
5055.937871,-90
5055.938841,-130
5055.939844,-160
5055.940831,-167
5055.942053,-130
5055.942826,-94
5055.943812,-93
5055.944799,-59
5055.945802,-10
5055.946782,-10
5055.947864,-93
5055.948827,-165
5055.949765,-194
5055.950826,-197
5055.95178,-156
5055.952791,-80
5055.953973,-33
5055.954736,-79
5055.955863,-101
5055.956714,-87
5055.957856,-80
5055.958849,-72
5055.959701,-65
5055.960694,-59
5055.962007,-44
5055.96269,-22
5055.963687,9
5055.964673,36
5055.965868,11
5055.966645,-96
5055.967676,-164
5055.968868,-204
5055.969624,-243
5055.97062,-231
5055.971757,-254
5055.9726,-310
5055.97361,-280
5055.974584,-206
5055.975579,-150
5055.976791,-97
5055.97762,-114
5055.978582,-180
5055.979764,-204
5055.980606,-137
5055.981676,-71
5055.982586,-62
5055.983614,-70
5055.984523,-97
5055.985523,-140
5055.986525,-190
5055.987506,-287
5055.988481,-339
5055.989574,-275
5055.990569,-188
5055.991564,-130
5055.992469,-138
5055.99354,-167
5055.994443,-197
5055.995443,-250
5055.996454,-248
5055.997475,-241
5055.998436,-234
5055.999443,-118
5056.000414,-19
5056.00164,26
5056.002496,77
5056.003415,132
5056.004408,175
5056.005367,176
5056.006384,85
5056.007382,-11
5056.008363,-60
5056.009398,-109
5056.010371,-116
5056.011365,-87
5056.012325,-58
5056.013571,-36
5056.014337,-39
5056.015365,-94
5056.01631,-162
5056.017308,-151
5056.018296,-89
5056.019578,-69
5056.020418,-50
5056.021291,-74
5056.02228,-187
5056.023281,-328
5056.024271,-386
5056.025463,-337
5056.026277,-279
5056.027265,-248
5056.028293,-246
5056.029238,-269
5056.030227,-300
5056.031219,-256
5056.032208,-149
5056.033216,-76
5056.034197,20
5056.035351,142
5056.036335,209
5056.037274,266
5056.038204,320
5056.03925,296
5056.040232,296
5056.04121,356
5056.042197,409
5056.043192,459
5056.04417,529
5056.045181,586
5056.046203,652
5056.04729,715
5056.048205,742
5056.049146,714
5056.050164,682
5056.051378,676
5056.052147,618
5056.053076,505
5056.054066,393
5056.055047,302
5056.056048,273
5056.057044,228
5056.05808,125
5056.058994,48
5056.060028,37
5056.061014,51
5056.062031,5
5056.063064,-103
5056.06404,-194
5056.065013,-250
5056.066019,-263
5056.066985,-300
5056.067976,-351
5056.068963,-379
5056.069963,-341
5056.070928,-293
5056.071993,-244
5056.072955,-235
5056.074035,-261
5056.074916,-299
5056.075918,-348
5056.076937,-386
5056.077906,-421
5056.078881,-460
5056.079896,-467
5056.080888,-429
5056.081944,-332
5056.082944,-294
5056.083924,-325
5056.084893,-331
5056.085906,-310
5056.086907,-290
5056.087842,-283
5056.088949,-265
5056.089838,-240
5056.090811,-153
5056.091842,-90
5056.092787,-89
5056.093773,-92
5056.094782,-87
5056.095802,-84
5056.096792,-50
5056.097766,-77
5056.098911,-162
5056.099879,-217
5056.100773,-184
5056.102044,-25
5056.102723,58
5056.104139,-6
5056.104723,-100
5056.105803,-156
5056.106691,-148
5056.107765,-80
5056.108803,-9
5056.109714,-37
5056.110703,-132
5056.111696,-224
5056.112678,-276
5056.113645,-255
5056.114663,-252
5056.115639,-307
5056.116699,-289
5056.117697,-178
5056.118695,-70
5056.119694,8
5056.120692,68
5056.12169,130
5056.122688,149
5056.123687,90
5056.124685,13
5056.125683,-31
5056.126682,-78
5056.12768,-168
5056.128678,-251
5056.129677,-236
5056.130675,-164
5056.131673,-155
5056.132621,-192
5056.13353,-226
5056.134633,-277
5056.135611,-334
5056.136493,-321
5056.137655,-221
5056.138515,-139
5056.139511,-99
5056.140463,-67
5056.141508,-72
5056.14248,-142
5056.14355,-225
5056.144553,-255
5056.1455,-187
5056.146471,-98
5056.147447,-49
5056.148476,-25
5056.149426,-22
5056.15042,-13
5056.151409,-2
5056.152427,18
5056.153392,56
5056.154392,45
5056.155422,-61
5056.156389,-172
5056.157382,-234
5056.158377,-224
5056.15936,-208
5056.160354,-228
5056.161367,-238
5056.162357,-186
5056.163358,-106
5056.164346,-60
5056.165341,-20
5056.166301,21
5056.16732,4
5056.168308,-53
5056.169282,-59
5056.170258,-22
5056.171278,-12
5056.172397,-17
5056.173307,-4
5056.174333,15
5056.175273,-10
5056.176306,-14
5056.177242,27
5056.1783,56
5056.179358,63
5056.180416,39
5056.181342,-42
5056.182285,-110
5056.183184,-113
5056.184203,-121
5056.185285,-146
5056.186251,-91
5056.187211,2
5056.18819,46
5056.189157,16
5056.190169,-32
5056.191223,-40
5056.192158,-34
5056.193181,-51
5056.1942,-96
5056.195153,-138
5056.196161,-125
5056.197128,-92
5056.198143,-78
5056.199097,-101
5056.20012,-148
5056.201097,-186
5056.202099,-201
5056.203075,-146
5056.204376,-101
5056.205081,-124
5056.20607,-180
5056.207083,-228
5056.2081,-216
5056.209158,-179
5056.210032,-119
5056.210998,-14
5056.21208,63
5056.212988,73
5056.214058,49
5056.215036,22
5056.216047,41
5056.217015,85
5056.217959,91
5056.219076,70
5056.220001,62
5056.220955,54
5056.221934,95
5056.222939,182
5056.223964,226
5056.225071,222
5056.226016,131
5056.226966,2
5056.227949,-70
5056.2289,-55
5056.229947,-19
5056.230915,-61
5056.231976,-92
5056.232922,-136
5056.23385,-188
5056.234874,-148
5056.235901,-58
5056.236872,24
5056.237901,60
5056.238921,18
5056.239845,-40
5056.240877,-37
5056.241902,-10
5056.242813,2
5056.243854,-8
5056.244792,-23
5056.245775,-41
5056.246804,-76
5056.2478,-48
5056.248817,20
5056.24979,109
5056.250764,209
5056.252004,277
5056.252778,322
5056.253755,302
5056.254797,206
5056.255868,115
5056.256746,95
5056.257756,89
5056.258741,72
5056.259759,52
5056.260738,51
5056.261784,49
5056.2627,14
5056.263823,16
5056.264691,48
5056.265651,67
5056.266653,18
5056.267638,-26
5056.268762,-30
5056.269688,-14
5056.27063,-4
5056.27173,31
5056.272785,132
5056.273626,261
5056.274594,313
5056.275608,270
5056.276613,218
5056.277628,218
5056.278609,250
5056.279668,205
5056.280582,149
5056.281613,141
5056.282585,126
5056.283611,110
5056.284552,124
5056.28558,138
5056.2866,176
5056.287513,187
5056.288559,194
5056.289558,203
5056.290498,212
5056.292083,171
5056.292533,66
5056.29348,8
5056.294479,-27
5056.295485,-62
5056.296462,-88
5056.29746,-108
5056.298462,-65
5056.299433,4
5056.300456,112
5056.301425,172
5056.302451,176
5056.303437,182
5056.304403,191
5056.30541,215
5056.306388,209
5056.307407,158
5056.30855,58
5056.309482,5
5056.310532,42
5056.311424,72
5056.312365,57
5056.313384,38
5056.314391,67
5056.315337,91
5056.316416,59
5056.317369,21
5056.318413,-8
5056.319351,-80
5056.320348,-188
5056.321319,-233
5056.322308,-231
5056.323287,-264
5056.324318,-294
5056.3253,-340
5056.326262,-327
5056.327259,-258
5056.328266,-156
5056.329251,-74
5056.33026,-62
5056.331247,-77
5056.332252,-43
5056.333246,4
5056.334225,39
5056.335333,44
5056.336248,28
5056.337211,-37
5056.33825,-113
5056.339235,-132
5056.340229,-98
5056.34116,-106
5056.342149,-149
5056.343178,-188
5056.344175,-241
5056.345246,-298
5056.346145,-352
5056.347156,-371
5056.348185,-355
5056.34917,-342
5056.350161,-395
5056.35121,-422
5056.352185,-380
5056.353118,-355
5056.354103,-328
5056.355118,-271
5056.356053,-197
5056.35707,-144
5056.358041,-158
5056.359154,-235
5056.360046,-323
5056.361106,-367
5056.362015,-323
5056.363056,-263
5056.364161,-251
5056.365048,-245
5056.366033,-236
5056.36703,-265
5056.368025,-269
5056.369052,-252
5056.370203,-221
5056.371068,-148
5056.372221,-146
5056.372962,-243
5056.373996,-319
5056.37499,-288
5056.375967,-253
5056.376963,-260
5056.377949,-238
5056.37899,-179
5056.379997,-118
5056.380904,-81
5056.382103,-119
5056.383188,-173
5056.383913,-202
5056.385067,-209
5056.385889,-208
5056.386973,-180
5056.387886,-124
5056.388941,-154
5056.3899,-287
5056.390866,-414
5056.391893,-470
5056.392854,-505
5056.394184,-567
5056.39483,-583
5056.395819,-560
5056.396897,-473
5056.397885,-366
5056.398816,-289
5056.399828,-249
5056.400802,-210
5056.40206,-158
5056.402788,-161
5056.403753,-180
5056.404753,-168
5056.405816,-166
5056.406799,-195
5056.407752,-231
5056.408709,-199
5056.409706,-179
5056.410726,-231
5056.411868,-234
5056.412735,-201
5056.413749,-229
5056.414744,-328
5056.415872,-364
5056.416697,-345
5056.417702,-306
5056.418693,-288
5056.419674,-277
5056.420671,-228
5056.421676,-101
5056.422719,-39
5056.423708,-64
5056.424636,-103
5056.42563,-163
5056.426641,-252
5056.427879,-247
5056.428598,-158
5056.429626,-90
5056.430583,-36
5056.431622,29
5056.43258,104
5056.433621,122
5056.434617,92
5056.435591,18
5056.436548,-61
5056.437571,-165
5056.438677,-291
5056.439563,-337
5056.440523,-270
5056.441511,-189
5056.442645,-154
5056.443531,-173
5056.444558,-189
5056.445492,-179
5056.446549,-178
5056.447483,-180
5056.448475,-177
5056.44972,-169
5056.450453,-196
5056.451462,-188
5056.45245,-151
5056.453643,-139
5056.454471,-186
5056.45568,-266
5056.456465,-310
5056.457432,-271
5056.458594,-195
5056.45955,-139
5056.46077,-115
5056.461458,-160
5056.46241,-223
5056.463419,-268
5056.464403,-255
5056.465403,-155
5056.466401,-14
5056.467376,118
5056.468465,161
5056.46946,130
5056.470303,84
5056.471343,70
5056.472557,68
5056.473308,44
5056.474332,-16
5056.475333,-32
5056.476308,-30
5056.477296,-65
5056.478374,-97
5056.479239,-114
5056.480245,-122
5056.481363,-155
5056.482247,-263
5056.483251,-355
5056.48423,-351
5056.485313,-253
5056.486214,-157
5056.487239,-141
5056.488242,-197
5056.489207,-276
5056.490219,-272
5056.491178,-179
5056.492203,-121
5056.493226,-155
5056.494205,-187
5056.495292,-164
5056.49617,-99
5056.497142,-75
5056.498294,-113
5056.499178,-189
5056.500127,-256
5056.501124,-268
5056.502167,-254
5056.503171,-215
5056.504123,-156
5056.505184,-104
5056.50615,-60
5056.50724,1
5056.510395,89
5056.510426,88
5056.510471,-44
5056.511098,-194
5056.512102,-277
5056.513107,-254
5056.514088,-179
5056.515053,-115
5056.516108,-99
5056.517039,-98
5056.518068,-90
5056.519368,-94
5056.520077,-70
5056.520997,-62
5056.522208,-83
5056.522975,-103
5056.524242,-113
5056.524971,-87
5056.525991,-39
5056.526961,-24
5056.527968,-41
5056.528943,10
5056.530223,52
5056.530963,46
5056.531952,38
5056.532978,33
5056.533973,-45
5056.534962,-164
5056.535949,-215
5056.536887,-258
5056.537879,-270
5056.53895,-195
5056.539897,-85
5056.540937,2
5056.541925,34
5056.542906,16
5056.543848,10
5056.544846,-8
5056.545848,-26
5056.546869,-75
5056.547845,-171
5056.54891,-265
5056.549831,-296
5056.550825,-300
5056.551924,-248
5056.552844,-157
5056.553805,-65
5056.554841,21
5056.555862,33
5056.556742,-69
5056.557999,-158
5056.558795,-147
5056.559751,-94
5056.560755,-53
5056.561744,-54
5056.562734,-56
5056.563728,-75
5056.564724,-94
5056.565696,-105
5056.566729,-71
5056.567699,-77
5056.56872,-107
5056.569666,-135
5056.570998,-186
5056.571982,-150
5056.572685,-48
5056.57365,-10
5056.574686,-55
5056.575597,-81
5056.577008,-70
5056.577788,-49
5056.578611,-41
5056.579605,-78
5056.580631,-114
5056.581606,-116
5056.582654,-89
5056.583601,-48
5056.584695,-21
5056.58571,21
5056.587454,89
5056.588184,79
5056.589295,27
5056.589779,-41
5056.590543,-131
5056.591526,-209
5056.59253,-205
5056.593546,-150
5056.594648,-101
5056.595523,-72
5056.596728,-79
5056.597516,-109
5056.598498,-113
5056.599453,-106
5056.600678,-118
5056.601489,-98
5056.602475,-37
5056.603461,-7
5056.60443,51
5056.605385,92
5056.60658,90
5056.607521,112
5056.608416,101
5056.609432,50
5056.610368,14
5056.611406,-60
5056.612376,-233
5056.613352,-376
5056.61435,-421
5056.615381,-359
5056.616329,-212
5056.617361,-109
5056.618398,-68
5056.61934,-110
5056.620335,-168
5056.621363,-195
5056.622368,-218
5056.623308,-206
5056.624301,-134
5056.625319,-34
5056.626328,59
5056.627293,93
5056.628561,95
5056.629291,71
5056.630238,71
5056.631243,92
5056.632296,67
5056.633276,43
5056.634237,13
5056.635253,-46
5056.636241,-105
5056.637271,-141
5056.638214,-99
5056.639257,-19
5056.640251,46
5056.641187,39
5056.64216,13
5056.643226,-22
5056.644345,-74
5056.645227,-128
5056.646151,-116
5056.647293,-76
5056.648268,-32
5056.649119,-57
5056.650199,-169
5056.651164,-258
5056.652108,-270
5056.653141,-261
5056.654115,-271
5056.655084,-262
5056.656093,-165
5056.657096,-64
5056.658125,-24
5056.659215,-37
5056.66006,-83
5056.661063,-75
5056.662075,-12
5056.663233,7
5056.664043,-45
5056.665028,-117
5056.666017,-163
5056.667056,-183
5056.668027,-144
5056.669026,-29
5056.670034,69
5056.671011,55
5056.671983,36
5056.673044,48
5056.673949,13
5056.674976,-15
5056.675971,-34
5056.676963,-48
5056.67797,-10
5056.678917,42
5056.679928,3
5056.680951,-95
5056.681919,-159
5056.682932,-179
5056.683894,-157
5056.685016,-101
5056.685902,-61
5056.686927,-43
5056.687872,-16
5056.688907,-40
5056.689849,-53
5056.690872,-12
5056.691894,31
5056.69283,2
5056.693857,-8
5056.694856,48
5056.69583,118
5056.696814,138
5056.697806,94
5056.698843,11
5056.699792,-68
5056.70083,-81
5056.701852,-33
5056.702783,12
5056.703761,11
5056.704759,12
5056.705751,45
5056.706792,48
5056.707779,24
5056.70876,20
5056.709762,2
5056.710735,-36
5056.711716,-26
5056.712737,60
5056.713692,117
5056.714732,79
5056.715724,-28
5056.716683,-83
5056.717695,-129
5056.718686,-182
5056.71964,-214
5056.720688,-204
5056.721644,-159
5056.722677,-141
5056.72366,-146
5056.724673,-156
5056.725707,-107
5056.726647,-31
5056.727655,5
5056.728627,47
5056.729671,69
5056.730582,56
5056.731616,37
5056.73259,5
5056.733579,-16
5056.734612,-43
5056.735566,-95
5056.736575,-150
5056.737565,-185
5056.738541,-170
5056.739562,-119
5056.740526,-61
5056.741493,25
5056.742547,119
5056.743543,124
5056.744538,42
5056.745515,-47
5056.746505,-95
5056.747492,-94
5056.748486,-10
5056.749468,65
5056.750457,33
5056.751504,-7
5056.752508,-6
5056.753479,-20
5056.754453,-67
5056.755465,-80
5056.756481,-37
5056.757438,-3
5056.758481,24
5056.759447,40
5056.7604,-16
5056.761406,-68
5056.762392,-99
5056.763389,-133
5056.764524,-101
5056.765499,-13
5056.766457,-2
5056.767361,-55
5056.768353,-131
5056.769333,-143
5056.770308,-59
5056.771344,30
5056.772327,59
5056.773339,81
5056.774315,70
5056.775381,-6
5056.776366,-74
5056.777309,-94
5056.778303,-120
5056.77928,-146
5056.780273,-74
5056.781253,35
5056.782248,88
5056.783248,61
5056.784243,45
5056.785233,65
5056.786214,58
5056.78722,39
5056.788416,67
5056.789272,110
5056.790219,133
5056.791218,116
5056.792231,88
5056.793208,39
5056.794172,-15
5056.795178,-44
5056.796187,-42
5056.797162,-39
5056.79815,-25
5056.799136,20
5056.800169,38
5056.801127,-8
5056.802148,-74
5056.803153,-106
5056.804152,-141
5056.805187,-164
5056.806133,-136
5056.807097,-100
5056.808084,-89
5056.809108,-106
5056.810114,-112
5056.8112,-111
5056.812118,-137
5056.813054,-144
5056.814047,-89
5056.815068,-37
5056.816062,-35
5056.817344,-47
5056.818023,-108
5056.818988,-152
5056.820076,-109
5056.821126,-41
5056.822107,-3
5056.82308,-28
5056.824006,-72
5056.825072,-63
5056.826068,-44
5056.826982,-34
5056.828018,-27
5056.829095,-27
5056.829968,-25
5056.830983,-24
5056.831931,-30
5056.833178,-61
5056.833895,-63
5056.835096,-18
5056.836014,1
5056.836974,-106
5056.837929,-176
5056.839449,-139
5056.84035,-73
5056.841252,-59
5056.841912,-20
5056.842861,99
5056.843851,145
5056.844857,73
5056.845939,-24
5056.846822,-81
5056.847846,-88
5056.848837,-90
5056.849872,-83
5056.85081,-45
5056.851921,13
5056.852937,77
5056.854072,163
5056.856323,181
5056.856371,109
5056.856912,21
5056.857787,-52
5056.858777,-76
5056.859819,-41
5056.860752,6
5056.861745,35
5056.862728,72
5056.863716,88
5056.864768,39
5056.865702,31
5056.866748,20
5056.868371,-8
5056.868764,-62
5056.869782,-79
5056.870741,-107
5056.871674,-181
5056.872733,-269
5056.873818,-336
5056.874666,-343
5056.875704,-279
5056.876868,-200
5056.87775,-154
5056.87887,-169
5056.879734,-148
5056.880653,-53
5056.881702,81
5056.882845,185
5056.883613,240
5056.884592,221
5056.885549,118
5056.886568,8
5056.88756,2
5056.888577,88
5056.889894,145
5056.890661,174
5056.891589,172
5056.892533,109
5056.893574,78
5056.894604,80
5056.895606,78
5056.896516,69
5056.897497,36
5056.898536,-9
5056.899484,-21
5056.900469,-58
5056.901473,-145
5056.90245,-156
5056.903431,-79
5056.904525,-35
5056.905565,-59
5056.906605,-111
5056.907471,-133
5056.908449,-109
5056.909408,-90
5056.910438,-121
5056.911614,-127
5056.912406,-62
5056.913711,2
5056.914394,10
5056.915342,-30
5056.916384,-65
5056.917377,-40
5056.918403,2
5056.919381,12
5056.920607,29
5056.921495,69
5056.922679,147
5056.923342,208
5056.924345,149
5056.925382,32
5056.926307,-60
5056.927333,-106
5056.928308,-105
5056.929428,-105
5056.930281,-116
5056.931262,-146
5056.932258,-170
5056.93327,-163
5056.934537,-129
5056.935286,-137
5056.936293,-217
5056.937248,-302
5056.938255,-317
5056.939293,-241
5056.940288,-132
5056.941198,-21
5056.942218,103
5056.943194,219
5056.9443,265
5056.94521,186
5056.946412,54
5056.94723,-27
5056.94818,-38
5056.949136,-44
5056.950171,-85
5056.951139,-79
5056.952153,-7
5056.953233,4
5056.954115,-35
5056.955267,-7
5056.956154,8
5056.957086,-65
5056.958097,-138
5056.95909,-139
5056.960066,-126
5056.961274,-123
5056.9621,-142
5056.963248,-175
5056.964078,-203
5056.965063,-215
5056.96604,-187
5056.96703,-154
5056.968019,-103
5056.969034,-34
5056.970208,8
5056.971005,9
5056.972009,-24
5056.973016,-87
5056.973984,-147
5056.975012,-142
5056.975966,-135
5056.977015,-175
5056.977955,-171
5056.978941,-148
5056.979952,-164
5056.980936,-205
5056.98196,-233
5056.982953,-223
5056.983934,-192
5056.984925,-170
5056.985933,-152
5056.98693,-109
5056.987888,-81
5056.989053,-107
5056.989888,-128
5056.990902,-96
5056.991881,-20
5056.992896,95
5056.993884,171
5056.994852,198
5056.995847,167
5056.996896,128
5056.997831,108
5056.998935,45
5056.999886,6
5057.000911,-22
5057.00181,-69
5057.002789,-124
5057.004018,-147
5057.004787,-119
5057.005757,-90
5057.006742,-93
5057.007919,-132
5057.008877,-160
5057.009788,-176
5057.010786,-149
5057.011752,-49
5057.012724,-13
5057.013734,-86
5057.014937,-134
5057.015752,-137
5057.016742,-132
5057.017706,-163
5057.018706,-211
5057.019675,-231
5057.020677,-224
5057.021694,-203
5057.022644,-136
5057.02373,-54
5057.024645,-37
5057.025647,-112
5057.026624,-217
5057.027648,-274
5057.028611,-252
5057.029632,-226
5057.030624,-232
5057.031618,-237
5057.032602,-184
5057.033597,-71
5057.034568,24
5057.035582,81
5057.036557,91
5057.037597,107
5057.038578,182
5057.039576,297
5057.040588,427
5057.041558,525
5057.042544,532
5057.043504,502
5057.04452,537
5057.045488,611
5057.046473,628
5057.047504,599
5057.048502,596
5057.049502,617
5057.050463,637
5057.051472,648
5057.052466,657
5057.053472,679
5057.054466,670
5057.055575,635
5057.056505,593
5057.057418,523
5057.058511,481
5057.059452,473
5057.060419,465
5057.061455,414
5057.062406,308
5057.063388,191
5057.064391,63
5057.06541,-113
5057.066459,-283
5057.067358,-405
5057.068354,-481
5057.069339,-501
5057.070353,-514
5057.071355,-507
5057.072383,-480
5057.073338,-478
5057.074333,-479
5057.075356,-430
5057.076309,-355
5057.077321,-338
5057.07831,-369
5057.079318,-338
5057.08029,-271
5057.081307,-265
5057.082274,-302
5057.083321,-289
5057.084307,-203
5057.085246,-122
5057.086246,-127
5057.087622,-142
5057.088324,-151
5057.089275,-213
5057.09021,-255
5057.091249,-167
5057.092221,-96
5057.093184,-167
5057.094385,-243
5057.095208,-262
5057.096247,-262
5057.097212,-253
5057.098242,-195
5057.099415,-125
5057.100281,-79
5057.101138,-111
5057.102227,-174
5057.103273,-202
5057.104122,-227
5057.105096,-223
5057.10609,-178
5057.10709,-87
5057.108098,68
5057.109137,140
5057.11008,104
5057.111087,86
5057.112073,101
5057.113051,57
5057.11407,-66
5057.115047,-178
5057.116023,-211
5057.117055,-201
5057.118008,-162
5057.11903,-121
5057.120079,-112
5057.121127,-95
5057.122009,-49
5057.12302,11
5057.124006,55
5057.125004,50
5057.125973,10
5057.126948,31
5057.127959,94
5057.129026,89
5057.12998,1
5057.130966,-90
5057.131985,-177
5057.132967,-243
5057.134022,-190
5057.134923,-62
5057.135961,8
5057.1369,-31
5057.137905,-111
5057.138953,-136
5057.139899,-111
5057.14088,-127
5057.141846,-147
5057.142855,-128
5057.143898,-129
5057.144862,-175
5057.145869,-123
5057.146847,-27
5057.147858,-16
5057.148853,-45
5057.150038,0
5057.150789,71
5057.151805,110
5057.152796,108
5057.153829,60
5057.15475,-52
5057.15584,-182
5057.156766,-273
5057.157777,-305
5057.158735,-263
5057.159735,-145
5057.160783,-16
5057.161757,78
5057.162734,130
5057.163757,116
5057.164753,74
5057.165775,30
5057.166758,1
5057.167703,2
5057.168692,55
5057.169661,117
5057.170705,135
5057.171684,89
5057.172688,73
5057.173669,83
5057.174761,51
5057.175638,-12
5057.176625,-71
5057.177613,-126
5057.178721,-206
5057.179662,-287
5057.180574,-293
5057.181614,-217
5057.182606,-132
5057.183607,-113
5057.184604,-116
5057.185689,-96
5057.186568,-29
5057.18757,30
5057.188538,60
5057.189575,84
5057.190531,83
5057.191554,89
5057.192531,57
5057.193504,45
5057.194577,31
5057.195549,-10
5057.196558,-8
5057.197526,12
5057.198468,-33
5057.199537,-78
5057.200464,-76
5057.201624,-18
5057.202451,46
5057.203678,101
5057.204439,131
5057.205505,129
5057.206438,100
5057.207465,17
5057.208439,-105
5057.209421,-199
5057.210387,-222
5057.211414,-216
5057.212392,-175
5057.213414,-102
5057.214351,-45
5057.215399,23
5057.216354,102
5057.217374,143
5057.218399,153
5057.219353,130
5057.220334,107
5057.221345,108
5057.222388,106
5057.22333,93
5057.224285,73
5057.225255,48
5057.226612,41
5057.227418,48
5057.228375,47
5057.229312,21
5057.230266,1
5057.23139,-41
5057.232287,-61
5057.233268,-20
5057.234253,14
5057.235241,20
5057.236261,45
5057.237315,70
5057.238181,72
5057.239242,112
5057.240301,143
5057.241214,165
5057.242205,159
5057.243364,123
5057.244218,85
5057.24518,104
5057.246196,141
5057.247191,101
5057.248165,43
5057.249165,38
5057.250134,28
5057.251154,57
5057.252112,109
5057.253115,150
5057.254217,148
5057.255115,146
5057.256124,149
5057.257073,111
5057.258107,51
5057.25914,8
5057.260068,19
5057.26104,84
5057.262119,135
5057.263164,113
5057.264043,121
5057.265248,168
5057.266022,176
5057.267006,163
5057.26813,156
5057.268998,180
5057.269986,199
5057.271002,201
5057.272009,214
5057.272989,196
5057.274213,178
5057.274993,157
5057.27597,167
5057.277189,223
5057.277969,224
5057.278978,191
5057.279957,180
5057.280924,155
5057.281932,92
5057.282905,16
5057.283902,-73
5057.285004,-120
5057.285903,-87
5057.286881,13
5057.288066,115
5057.288942,121
5057.289978,70
5057.290907,54
5057.291952,60
5057.292894,67
5057.293842,143
5057.294898,297
5057.295818,408
5057.296862,447
5057.297804,390
5057.298804,276
5057.299833,195
5057.300829,164
5057.301849,155
5057.302916,117
5057.303788,64
5057.304789,8
5057.305823,-26
5057.306744,-29
5057.307757,-10
5057.308734,-7
5057.309741,-66
5057.310701,-108
5057.311708,-88
5057.312896,-56
5057.313757,-23
5057.314747,9
5057.31569,-1
5057.316677,-63
5057.317672,-73
5057.31869,5
5057.319687,59
5057.320797,72
5057.321686,78
5057.32271,88
5057.323639,48
5057.324641,0
5057.325662,-43
5057.326635,-62
5057.327624,-94
5057.328625,-57
5057.329716,-32
5057.330584,-46
5057.331594,-13
5057.332582,45
5057.333567,55
5057.334595,20
5057.335598,-24
5057.336692,-96
5057.337783,-122
5057.338562,-172
5057.339574,-275
5057.340562,-340
5057.341526,-334
5057.342528,-269
5057.343521,-208
5057.344561,-151
5057.345611,-122
5057.346662,-186
5057.347505,-286
5057.348783,-358
5057.349505,-382
5057.350598,-339
5057.351667,-239
5057.352491,-138
5057.353469,-120
5057.354443,-155
5057.355461,-152
5057.356508,-174
5057.357655,-239
5057.358505,-282
5057.359537,-311
5057.360731,-317
5057.361445,-271
5057.362434,-237
5057.363455,-219
5057.364382,-209
5057.365409,-214
5057.366424,-239
5057.367465,-268
5057.368417,-300
5057.369381,-290
5057.370323,-254
5057.371327,-245
5057.37247,-224
5057.373344,-197
5057.374322,-210
5057.375281,-195
5057.376309,-156
5057.377283,-176
5057.3783,-210
5057.379279,-281
5057.380298,-376
5057.381285,-410
5057.382268,-391
5057.383274,-365
5057.38435,-321
5057.385275,-247
5057.386238,-208
5057.38722,-167
5057.388258,-198
5057.389239,-280
5057.39029,-295
5057.391221,-314
5057.392344,-338
5057.393218,-321
5057.394282,-264
5057.395207,-210
5057.39624,-203
5057.397218,-211
5057.398144,-149
5057.399213,-94
5057.400127,-116
5057.401119,-177
5057.402132,-195
5057.403107,-186
5057.404412,-186
5057.405177,-126
5057.406109,-77
5057.407096,-116
5057.4081,-136
5057.409085,-142
5057.410074,-153
5057.411077,-153
5057.412091,-189
5057.413083,-203
5057.414046,-180
5057.415254,-202
5057.416462,-196
5057.41707,-184
5057.418175,-178
5057.419062,-137
5057.420096,-99
5057.421033,-131
5057.421986,-201
5057.423035,-209
5057.424025,-154
5057.425006,-167
5057.425979,-261
5057.427212,-323
5057.427988,-288
5057.428984,-216
5057.429941,-164
5057.431427,-138
5057.431952,-146
5057.433004,-143
5057.434043,-62
5057.435077,-3
5057.436052,13
5057.436905,7
5057.43791,-19
5057.438997,-97
5057.439879,-175
5057.44091,-163
5057.442002,-129
5057.442878,-103
5057.443856,-70
5057.444829,-54
5057.445882,-85
5057.446868,-139
5057.447875,-147
5057.448932,-155
5057.449848,-236
5057.450813,-365
5057.451789,-477
5057.452888,-510
5057.453779,-457
5057.454799,-348
5057.455802,-236
5057.456815,-75
5057.457771,44
5057.458719,55
5057.459738,32
5057.460725,-12
5057.461751,-82
5057.462746,-138
5057.463708,-170
5057.464727,-220
5057.465712,-246
5057.466707,-239
5057.467702,-210
5057.468692,-146
5057.46969,-59
5057.470706,-30
5057.471677,-55
5057.472651,-36
5057.473656,-2
5057.474677,11
5057.475649,11
5057.476632,22
5057.477596,62
5057.478618,47
5057.479618,-69
5057.480614,-149
5057.481566,-143
5057.482598,-133
5057.483599,-101
5057.484879,-39
5057.485615,24
5057.486562,1
5057.487545,-61
5057.488549,-106
5057.489594,-136
5057.490608,-128
5057.491624,-121
5057.492617,-117
5057.493724,-127
5057.494988,-65
5057.495495,59
5057.496522,175
5057.497484,100
5057.498514,-95
5057.499566,-183
5057.50055,-183
5057.501543,-172
5057.502455,-132
5057.503465,-75
5057.504461,-40
5057.505441,-73
5057.506457,-143
5057.507531,-171
5057.508441,-111
5057.509408,-46
5057.510415,-98
5057.511675,-176
5057.513223,-181
5057.513436,-138
5057.514384,-136
5057.515384,-144
5057.516393,-114
5057.518171,-52
5057.518512,-5
5057.519372,-40
5057.520357,-91
5057.521329,-92
5057.5224,-35
5057.523356,16
5057.524323,-12
5057.525302,-82
5057.526301,-135
5057.527304,-143
5057.528291,-127
5057.529259,-89
5057.530275,-70
5057.531297,-114
5057.532282,-138
5057.533279,-117
5057.534295,-102
5057.535245,-47
5057.536272,43
5057.537239,49
5057.538231,-33
5057.539257,-142
5057.540239,-179
5057.541238,-128
5057.542176,-32
5057.543198,18
5057.54424,12
5057.545197,-12
5057.546333,-17
5057.547265,67
5057.548151,153
5057.549125,154
5057.550162,107
5057.551104,47
5057.552155,-33
5057.553104,-85
5057.554085,-112
5057.555107,-158
5057.556094,-197
5057.557214,-187
5057.558198,-125
5057.559094,-81
5057.560065,-109
5057.561223,-179
5057.562089,-226
5057.563057,-207
5057.564032,-206
5057.565089,-195
5057.566145,-154
5057.567066,-131
5057.56819,-122
5057.569006,-106
5057.569998,-74
5057.571041,4
5057.572001,54
5057.572978,17
5057.57479,-36
5057.575706,-52
5057.5764,-109
5057.576999,-145
5057.577947,-93
5057.578939,-80
5057.57995,-166
5057.580936,-211
5057.581935,-166
5057.582913,-83
5057.583919,-36
5057.584977,-9
5057.585891,27
5057.586897,46
5057.587919,37
5057.588961,17
5057.589882,-32
5057.590905,-99
5057.591888,-129
5057.592911,-115
5057.593835,-60
5057.594851,-14
5057.595855,-32
5057.596861,-52
5057.597819,-52
5057.598882,-78
5057.59982,-114
5057.600833,-76
5057.601809,-8
5057.602773,27
5057.603919,27
5057.604873,52
5057.605899,31
5057.606729,-38
5057.607789,-86
5057.608749,-104
5057.609739,-113
5057.61075,-82
5057.611767,-60
5057.612773,-84
5057.613725,-122
5057.614742,-128
5057.615717,-125
5057.6167,-114
5057.617711,-89
5057.618708,13
5057.619746,81
5057.620717,102
5057.621645,121
5057.622659,186
5057.623667,202
5057.624613,137
5057.62563,6
5057.626663,-145
5057.627636,-246
5057.628599,-246
5057.629631,-207
5057.630627,-173
5057.631621,-147
5057.63259,-137
5057.633651,-143
5057.634617,-128
5057.635633,-90
5057.636577,-87
5057.637572,-68
5057.638527,-22
5057.639564,-16
5057.64056,-64
5057.641553,-97
5057.642528,-110
5057.643504,-97
5057.644529,-96
5057.645775,-101
5057.64647,-44
5057.647543,22
5057.648487,71
5057.649472,90
5057.650463,110
5057.651609,143
5057.652503,173
5057.653455,189
5057.654452,112
5057.655437,-15
5057.656415,-124
5057.657477,-219
5057.658443,-242
5057.659459,-200
5057.660393,-151
5057.661407,-156
5057.66239,-209
5057.663401,-288
5057.664382,-286
5057.665384,-194
5057.666768,-112
5057.667354,-62
5057.66845,-30
5057.669333,-3
5057.670324,29
5057.671328,72
5057.672331,57
5057.673324,19
5057.674485,23
5057.675389,28
5057.676291,50
5057.677279,40
5057.678266,53
5057.679255,90
5057.680245,144
5057.681255,114
5057.682237,-32
5057.683269,-161
5057.684259,-210
5057.68544,-220
5057.686256,-209
5057.687236,-180
5057.688223,-103
5057.689201,-2
5057.690245,2
5057.691201,-89
5057.6922,-130
5057.693208,-105
5057.694177,-133
5057.695142,-154
5057.696136,-139
5057.697156,-144
5057.698134,-136
5057.699155,-99
5057.700156,-67
5057.701124,-34
5057.702133,48
5057.703118,129
5057.704102,153
5057.705288,142
5057.706157,144
5057.707076,134
5057.708087,106
5057.709072,74
5057.71007,47
5057.711074,23
5057.712094,-6
5057.713053,-25
5057.71403,-20
5057.715072,-31
5057.716015,-64
5057.717036,-69
5057.718021,-66
5057.719015,-50
5057.720053,-30
5057.720994,-35
5057.721994,-14
5057.723018,-9
5057.72402,-36
5057.72498,-78
5057.725952,-148
5057.726948,-199
5057.727968,-176
5057.728955,-80
5057.730018,-1
5057.730935,13
5057.73194,4
5057.732958,-53
5057.733922,-95
5057.734889,-104
5057.735926,-123
5057.736919,-137
5057.738063,-125
5057.738915,-138
5057.740033,-180
5057.740868,-214
5057.741836,-206
5057.742837,-138
5057.743866,-24
5057.744845,77
5057.745808,109
5057.746848,63
5057.747806,18
5057.748804,-5
5057.749888,-12
5057.750791,12
5057.751886,73
5057.752793,121
5057.753823,141
5057.754778,146
5057.755778,141
5057.756736,182
5057.757757,204
5057.758726,159
5057.759787,26
5057.760736,-129
5057.761739,-175
5057.762939,-109
5057.763698,-45
5057.764719,-49
5057.765698,-63
5057.766687,-85
5057.767702,-119
5057.768674,-156
5057.76967,-177
5057.770702,-169
5057.771694,-134
5057.772624,-59
5057.773643,38
5057.774994,140
5057.775633,199
5057.776604,151
5057.777778,81
5057.778675,66
5057.779695,95
5057.780634,117
5057.781609,84
5057.78261,62
5057.783606,69
5057.784685,59
5057.785583,18
5057.786567,-9
5057.787562,14
5057.788532,30
5057.789539,-5
5057.790531,-35
5057.791529,-49
5057.792504,-28
5057.793522,12
5057.794515,31
5057.79551,-53
5057.796497,-160
5057.797492,-156
5057.798629,-46
5057.799476,65
5057.800449,80
5057.801457,50
5057.802474,65
5057.803442,75
5057.804435,33
5057.805407,-21
5057.80643,-43
5057.807413,-22
5057.80842,-13
5057.80947,-27
5057.810492,-29
5057.811515,-9
5057.812537,-11
5057.81356,-74
5057.814582,-112
5057.815605,-93
5057.816627,-96
5057.81765,-79
5057.818673,-34
5057.819695,43
5057.820718,114
5057.82174,80
5057.822763,-7
5057.823537,-62
5057.824473,-95
5057.825359,-129
5057.826365,-169
5057.827324,-137
5057.82828,-45
5057.829284,57
5057.83031,96
5057.831243,89
5057.832319,49
5057.833622,1
5057.834259,0
5057.835234,22
5057.836387,12
5057.837234,-38
5057.838231,-89
5057.839386,-91
5057.840504,-55
5057.841218,-39
5057.842446,-41
5057.844305,-44
5057.844521,-49
5057.845236,-52
5057.846205,-34
5057.84722,3
5057.848175,59
5057.849167,117
5057.850146,141
5057.851253,153
5057.852154,149
5057.853204,95
5057.854186,34
5057.855215,5
5057.856645,-28
5057.857085,-30
5057.858124,-5
5057.85928,-1
5057.860598,-23
5057.861381,-44
5057.862062,-36
5057.863061,-3
5057.864062,36
5057.865021,55
5057.866036,5
5057.867083,-112
5057.868075,-222
5057.869159,-297
5057.870009,-318
5057.871001,-301
5057.871975,-352
5057.873003,-367
5057.873945,-298
5057.874984,-113
5057.87596,123
5057.876965,277
5057.877963,262
5057.878966,195
5057.879955,112
5057.880935,26
5057.88192,-35
5057.882936,-69
5057.883901,-30
5057.884917,49
5057.885878,89
5057.886905,67
5057.887907,19
5057.888961,-5
5057.889889,-9
5057.890883,-30
5057.891871,-44
5057.892839,-58
5057.89387,-96
5057.894845,-159
5057.895811,-237
5057.8968,-257
5057.897822,-209
5057.898832,-171
5057.8999,-135
5057.901097,-104
5057.901812,-33
5057.902805,12
5057.903875,5
5057.904791,-36
5057.905836,-62
5057.906731,-76
5057.907756,-123
5057.908733,-145
5057.909812,-97
5057.910739,-47
5057.911958,-16
5057.91271,15
5057.913711,43
5057.914808,71
5057.915709,88
5057.916716,67
5057.917696,19
5057.918778,20
5057.919708,41
5057.920712,-28
5057.921706,-115
5057.922883,-168
5057.923657,-235
5057.924644,-252
5057.925632,-223
5057.926721,-186
5057.927669,-190
5057.928643,-204
5057.929695,-162
5057.930613,-85
5057.931581,-47
5057.932579,2
5057.933623,73
5057.934709,144
5057.935657,184
5057.936668,170
5057.937617,148
5057.938528,125
5057.939509,150
5057.940574,211
5057.941576,302
5057.942578,371
5057.943547,417
5057.944514,489
5057.94566,564
5057.946559,607
5057.947539,641
5057.948607,672
5057.949747,676
5057.950563,730
5057.951547,821
5057.952481,863
5057.953448,861
5057.954427,816
5057.955417,727
5057.956422,611
5057.957525,521
5057.958436,445
5057.959389,366
5057.960402,278
5057.961407,168
5057.962396,48
5057.96338,-59
5057.964487,-80
5057.96537,-34
5057.966331,-7
5057.967372,-47
5057.968412,-177
5057.969357,-267
5057.970332,-255
5057.971339,-262
5057.972491,-326
5057.973301,-347
5057.974369,-339
5057.975292,-417
5057.976309,-463
5057.977295,-443
5057.978426,-399
5057.979248,-382
5057.980279,-347
5057.981254,-313
5057.982265,-329
5057.983267,-331
5057.984217,-316
5057.985234,-308
5057.98624,-269
5057.987227,-246
5057.988248,-218
5057.989255,-155
5057.990204,-127
5057.991211,-161
5057.992226,-181
5057.993181,-151
5057.994154,-86
5057.995232,-11
5057.996187,28
5057.99716,61
5057.998168,91
5057.999171,113
5058.000155,84
5058.001466,11
5058.00244,-36
5058.00314,-69
5058.004082,-56
5058.005085,-42
5058.006113,-57
5058.007085,-63
5058.008052,-57
5058.009045,-10
5058.010095,11
5058.01105,10
5058.012044,18
5058.013072,6
5058.014071,-56
5058.01505,-100
5058.016026,-72
5058.017069,-51
5058.018076,-76
5058.019027,-97
5058.020055,-8
5058.02112,138
5058.021996,243
5058.022967,251
5058.023969,151
5058.024963,60
5058.026051,42
5058.02697,83
5058.027961,138
5058.028996,161
5058.02995,149
5058.030889,94
5058.031923,-3
5058.032938,-78
5058.033885,-89
5058.034996,-91
5058.035924,-103
5058.036921,-94
5058.038018,-63
5058.038958,-26
5058.039849,-18
5058.040837,-18
5058.041827,-46
5058.042866,-131
5058.043858,-171
5058.044834,-156
5058.045824,-117
5058.046839,-49
5058.047794,-8
5058.048802,-45
5058.04979,-116
5058.051783,-95
5058.051842,-23
5058.052834,47
5058.053995,49
5058.054809,34
5058.055828,44
5058.056824,50
5058.057821,45
5058.058869,-4
5058.059724,-68
5058.06076,-142
5058.061727,-226
5058.062706,-284
5058.063707,-275
5058.064749,-262
5058.065675,-246
5058.06665,-196
5058.067714,-113
5058.06871,-47
5058.069682,5
5058.070674,21
5058.071672,38
5058.072632,103
5058.073884,191
5058.074676,233
5058.075612,188
5058.076628,88
5058.077665,17
5058.078633,-26
5058.079647,-72
5058.080632,-86
5058.081601,-78
5058.082564,-56
5058.083524,-24
5058.084696,41
5058.085598,110
5058.086579,153
5058.087561,168
5058.088556,154
5058.089578,82
5058.090726,2
5058.091577,-11
5058.092496,54
5058.09351,128
5058.094494,137
5058.095516,117
5058.096535,143
5058.097485,158
5058.098471,166
5058.099479,130
5058.100493,43
5058.101571,2
5058.102453,-19
5058.103458,-66
5058.104427,-141
5058.105484,-156
5058.106444,-122
5058.107392,-69
5058.108443,-9
5058.109418,35
5058.110392,33
5058.111455,28
5058.112395,24
5058.113462,25
5058.114377,76
5058.115369,104
5058.116336,50
5058.117344,-6
5058.118463,-24
5058.119309,-38
5058.120332,1
5058.121327,107
5058.122435,140
5058.12334,132
5058.124317,155
5058.1253,142
5058.126275,110
5058.127299,139
5058.128302,218
5058.129276,250
5058.13034,212
5058.131249,167
5058.132322,136
5058.133256,88
5058.134247,25
5058.135261,-5
5058.136243,-7
5058.137323,-24
5058.138215,-35
5058.139213,21
5058.140226,89
5058.141181,86
5058.142211,8
5058.143194,-3
5058.144145,49
5058.145162,59
5058.146464,40
5058.147177,10
5058.14838,21
5058.149124,67
5058.150122,74
5058.151333,16
5058.152117,-22
5058.15323,15
5058.1542,95
5058.155118,139
5058.156098,149
5058.157103,109
5058.158047,111
5058.15925,173
5058.1602,233
5058.161067,245
5058.162079,220
5058.163022,209
5058.164015,233
5058.165036,234
5058.166017,190
5058.167023,136
5058.168113,143
5058.169038,182
5058.170236,202
5058.17101,141
5058.171962,83
5058.173003,140
5058.174005,252
5058.174987,321
5058.175987,288
5058.176981,222
5058.17796,230
5058.178988,271
5058.179961,305
5058.181093,292
5058.18195,277
5058.18292,262
5058.184026,201
5058.18506,143
5058.185895,122
5058.186886,128
5058.187859,172
5058.188944,185
5058.189868,151
5058.190869,95
5058.19206,65
5058.192871,81
5058.193926,99
5058.194833,95
5058.195825,78
5058.19681,44
5058.198115,14
5058.198877,36
5058.199872,46
5058.200899,75
5058.202187,123
5058.20278,128
5058.20384,127
5058.204771,116
5058.205824,121
5058.206849,147
5058.2078,145
5058.208729,111
5058.209763,49
5058.210758,-27
5058.211804,-50
5058.212733,2
5058.213942,80
5058.214731,130
5058.215691,128
5058.216723,95
5058.217838,36
5058.218692,-24
5058.219642,-10
5058.220698,20
5058.221662,18
5058.222724,19
5058.223632,50
5058.224607,56
5058.225644,37
5058.226644,26
5058.227593,42
5058.228595,-9
5058.229623,-107
5058.230652,-163
5058.231788,-141
5058.232611,-94
5058.233593,-71
5058.234638,-78
5058.235554,-118
5058.236614,-155
5058.237533,-207
5058.238532,-266
5058.23952,-212
5058.24052,-111
5058.241497,-81
5058.242524,-66
5058.243507,-36
5058.244596,-41
5058.245486,-103
5058.24648,-150
5058.247719,-110
5058.248474,-68
5058.24946,-78
5058.250439,-83
5058.251472,-97
5058.252486,-119
5058.253441,-148
5058.254435,-234
5058.255448,-314
5058.256466,-311
5058.257396,-259
5058.258412,-270
5058.259785,-350
5058.260369,-379
5058.26138,-363
5058.262407,-346
5058.263479,-317
5058.264372,-280
5058.265415,-266
5058.266367,-267
5058.267405,-213
5058.268364,-160
5058.269371,-147
5058.2703,-172
5058.271511,-271
5058.272388,-369
5058.273374,-406
5058.274354,-399
5058.275285,-346
5058.276284,-263
5058.277342,-199
5058.278282,-164
5058.279274,-146
5058.280256,-100
5058.281252,-107
5058.282236,-156
5058.283268,-202
5058.284222,-234
5058.285245,-238
5058.286218,-210
5058.287197,-208
5058.2882,-233
5058.289229,-262
5058.290202,-245
5058.291182,-258
5058.292193,-228
5058.293174,-131
5058.294154,-69
5058.295192,-95
5058.296175,-159
5058.297156,-170
5058.298126,-146
5058.299128,-171
5058.300162,-227
5058.301179,-201
5058.3021,-183
5058.303126,-150
5058.304148,-122
5058.305341,-116
5058.306101,-118
5058.307058,-132
5058.308072,-159
5058.309116,-181
5058.310048,-198
5058.311168,-222
5058.312065,-269
5058.313028,-302
5058.314057,-271
5058.315088,-183
5058.31622,-137
5058.316983,-178
5058.318111,-174
5058.319055,-80
5058.320056,7
5058.321044,72
5058.321983,121
5058.322997,109
5058.324004,46
5058.324958,40
5058.326116,47
5058.32697,-6
5058.328304,-66
5058.328975,-76
5058.329955,-78
5058.330954,-153
5058.331962,-189
5058.332966,-182
5058.333936,-185
5058.335032,-147
5058.335915,-99
5058.336938,-91
5058.337878,-108
5058.33894,-142
5058.340164,-180
5058.340885,-158
5058.341901,-92
5058.34305,-125
5058.343863,-192
5058.344809,-241
5058.345836,-229
5058.346774,-197
5058.347812,-190
5058.348779,-192
5058.349784,-152
5058.350863,-106
5058.351768,-104
5058.352768,-117
5058.353851,-104
5058.354825,-113
5058.355795,-126
5058.356802,-117
5058.357718,-86
5058.358742,-77
5058.35973,-103
5058.360753,-158
5058.361703,-195
5058.3627,-195
5058.363713,-183
5058.364725,-148
5058.365707,-97
5058.366705,-49
5058.36792,26
5058.368647,92
5058.369678,76
5058.370661,4
5058.371646,-62
5058.372798,-94
5058.373673,-70
5058.374624,-55
5058.375731,-72
5058.376625,-101
5058.377613,-131
5058.378666,-111
5058.379596,-54
5058.38058,-87
5058.3816,-201
5058.382567,-290
5058.383579,-373
5058.384646,-418
5058.385569,-361
5058.38657,-279
5058.387551,-217
5058.388546,-160
5058.389589,-105
5058.39052,-4
5058.39159,107
5058.392486,199
5058.393531,226
5058.394511,178
5058.395743,151
5058.396872,115
5058.397469,58
5058.398512,39
5058.399536,50
5058.400551,27
5058.401465,38
5058.402442,57
5058.403427,29
5058.404486,-18
5058.405543,-23
5058.4068,-25
5058.407402,-23
5058.408487,-62
5058.409441,-111
5058.410396,-101
5058.4114,-61
5058.412359,-109
5058.413363,-188
5058.414343,-259
5058.415369,-253
5058.41638,-166
5058.417341,-115
5058.418345,-77
5058.419332,-58
5058.420329,-47
5058.421396,-25
5058.422385,-17
5058.423333,-25
5058.424513,-50
5058.425339,-80
5058.42627,-61
5058.42767,-14
5058.42829,29
5058.42934,25
5058.430321,-16
5058.431274,-63
5058.432301,-116
5058.433244,-135
5058.434306,-91
5058.435228,-1
5058.436227,25
5058.437205,-50
5058.438209,-140
5058.43924,-144
5058.440259,-57
5058.441244,8
5058.442192,-20
5058.44313,-59
5058.444134,-123
5058.445152,-147
5058.446147,-95
5058.447164,-38
5058.448141,-15
5058.44913,-28
5058.450123,-52
5058.451208,-86
5058.452533,-76
5058.453213,-17
5058.454331,8
5058.455056,-33
5058.456166,-82
5058.457098,-70
5058.458501,-54
5058.459074,-80
5058.460043,-128
5058.46168,-152
5058.462048,-144
5058.463103,-137
5058.46402,-114
5058.465043,-62
5058.466046,-36
5058.467013,-48
5058.468094,-65
5058.469003,-66
5058.469994,-16
5058.47101,10
5058.471983,-8
5058.473008,5
5058.473966,41
5058.474957,13
5058.47602,-22
5058.476957,10
5058.47797,69
5058.478949,98
5058.479932,45
5058.480973,-11
5058.481937,-32
5058.482982,-67
5058.485215,-91
5058.48527,-50
5058.485904,23
5058.486889,80
5058.487899,80
5058.488903,46
5058.489852,-19
5058.490843,-101
5058.491884,-116
5058.492848,-121
5058.493857,-178
5058.494851,-242
5058.495839,-274
5058.496828,-246
5058.497805,-160
5058.498847,-63
5058.499917,14
5058.500765,50
5058.501815,62
5058.50276,45
5058.503767,8
5058.50476,22
5058.505756,62
5058.506765,73
5058.507721,37
5058.508748,-52
5058.509722,-86
5058.510701,-74
5058.511767,-45
5058.512804,-49
5058.513691,-75
5058.514712,-89
5058.516448,-42
5058.518069,33
5058.518145,45
5058.518735,18
5058.519792,12
5058.520668,0
5058.521694,-2
5058.522706,2
5058.523688,-1
5058.524633,14
5058.525663,-16
5058.526677,-91
5058.527639,-154
5058.528619,-178
5058.529629,-160
5058.530602,-152
5058.531588,-147
5058.532607,-120
5058.533606,-57
5058.53469,15
5058.535567,73
5058.536565,78
5058.537615,35
5058.538553,60
5058.539558,135
5058.540603,164
5058.541506,82
5058.542515,-70
5058.543585,-192
5058.544507,-291
5058.545568,-288
5058.54654,-182
5058.547469,-101
5058.548917,-130
5058.549513,-162
5058.550572,-179
5058.551482,-202
5058.552497,-207
5058.553473,-125
5058.554422,-30
5058.555549,-16
5058.556596,-10
5058.55746,20
5058.558769,35
5058.559425,62
5058.560517,117
5058.561423,166
5058.56248,179
5058.563399,139
5058.56439,73
5058.565382,59
5058.566381,69
5058.567367,117
5058.568397,181
5058.569368,174
5058.57032,89
5058.571357,22
5058.57241,13
5058.573351,61
5058.574333,109
5058.575757,63
5058.576314,-25
5058.579989,-102
5058.580247,-157
5058.580505,-137
5058.58066,-108
5058.581313,-115
5058.582229,-116
5058.583227,-90
5058.584331,-54
5058.585251,-69
5058.586441,-102
5058.587304,-123
5058.588235,-128
5058.589247,-129
5058.590421,-99
5058.591201,-26
5058.592235,-12
5058.59325,-62
5058.594215,-129
5058.595186,-156
5058.596193,-105
5058.59715,-48
5058.598177,-35
5058.599141,-15
5058.600153,77
5058.601383,112
5058.602116,50
5058.603186,-42
5058.604178,-58
5058.605108,-4
5058.606103,31
5058.608533,7
5058.610044,-11
5058.610542,28
5058.610665,97
5058.611102,83
5058.612204,-20
5058.613048,-102
5058.614032,-161
5058.615077,-242
5058.616023,-281
5058.617035,-285
5058.618063,-270
5058.619216,-216
5058.620194,-140
5058.621054,-52
5058.622055,47
5058.623014,89
5058.624292,83
5058.624999,97
5058.626013,86
5058.627022,31
5058.627966,0
5058.629053,-6
5058.62995,-8
5058.630942,43
5058.632007,109
5058.632939,155
5058.633943,208
5058.63499,214
5058.635908,141
5058.637029,84
5058.637884,26
5058.639139,-26
5058.639909,-15
5058.640896,54
5058.6419,124
5058.642918,110
5058.643859,38
5058.644845,15
5058.64585,-12
5058.646858,-36
5058.647811,-41
5058.648857,-39
5058.649838,10
5058.650883,48
5058.651959,27
5058.65297,-44
5058.654066,-128
5058.654933,-200
5058.655829,-205
5058.656882,-180
5058.657787,-154
5058.658763,-86
5058.659796,1
5058.660771,18
5058.661746,-28
5058.662719,-96
5058.663734,-139
5058.665158,-135
5058.665736,-147
5058.66675,-120
5058.66775,-46
5058.66874,-29
5058.669809,-36
5058.670715,-54
5058.671678,-58
5058.67269,-27
5058.673695,29
5058.674641,106
5058.675902,97
5058.67665,5
5058.677649,-93
5058.678637,-203
5058.679706,-241
5058.680657,-180
5058.681653,-106
5058.682658,-58
5058.683638,-30
5058.684591,-10
5058.685551,-68
5058.68671,-126
5058.687567,-87
5058.68866,17
5058.689583,31
5058.690636,-38
5058.691578,-76
5058.692546,-67
5058.693526,-38
5058.694549,-23
5058.695527,9
5058.696571,93
5058.697505,156
5058.698499,189
5058.699534,170
5058.700515,120
5058.701565,84
5058.702521,-5
5058.703437,-116
5058.704502,-167
5058.705864,-97
5058.706605,27
5058.707608,83
5058.708548,14
5058.709498,-73
5058.710609,-68
5058.711393,-28
5058.712416,39
5058.713379,109
5058.714406,116
5058.715407,44
5058.716351,9
5058.717362,-42
5058.718381,-79
5058.719497,-47
5058.72039,-20
5058.721342,19
5058.722324,95
5058.723314,135
5058.724344,56
5058.725341,-46
5058.726324,-98
5058.72733,-48
5058.728335,57
5058.729272,104
5058.730479,70
5058.731269,20
5058.732287,15
5058.733458,25
5058.734371,51
5058.735222,105
5058.736235,135
5058.737218,115
5058.738227,105
5058.739198,97
5058.74027,105
5058.741201,82
5058.742193,17
5058.743225,-39
5058.744201,-50
5058.745201,-19
5058.746178,18
5058.747276,-3
5058.748374,-34
5058.749173,9
5058.750215,52
5058.751162,84
5058.752154,101
5058.753244,70
5058.754156,-11
5058.75516,-65
5058.756112,-59
5058.757127,-35
5058.758115,-56
5058.75911,-128
5058.760104,-204
5058.761121,-217
5058.762118,-160
5058.763166,-93
5058.764067,-32
5058.765038,-11
5058.766192,41
5058.767043,108
5058.768055,143
5058.76904,113
5058.77,19
5058.771011,-75
5058.771978,-92
5058.772977,-70
5058.773985,-132
5058.775008,-230
5058.775988,-281
5058.776968,-288
5058.778065,-264
5058.779029,-210
5058.779953,-125
5058.781021,-33
5058.782019,20
5058.783018,29
5058.783955,47
5058.78496,53
5058.785932,37
5058.786935,66
5058.787903,149
5058.788934,199
5058.789879,203
5058.79091,172
5058.791873,130
5058.792899,64
5058.793848,-5
5058.794864,-17
5058.795839,9
5058.796848,4
5058.798091,-47
5058.798847,-85
5058.799815,-106
5058.800826,-154
5058.801808,-186
5058.802765,-152
5058.803807,-70
5058.804782,4
5058.80579,-8
5058.806781,-78
5058.807778,-157
5058.80877,-225
5058.81006,-202
5058.810759,-96
5058.811758,9
5058.812703,62
5058.813721,101
5058.814741,134
5058.815758,158
5058.816697,153
5058.817744,121
5058.818684,59
5058.819715,37
5058.820897,60
5058.821689,93
5058.822671,44
5058.823631,-17
5058.824652,-55
5058.825672,-89
5058.826674,-90
5058.827638,-47
5058.828614,-38
5058.829663,-83
5058.830598,-97
5058.831596,-24
5058.832609,37
5058.833615,1
5058.834596,-65
5058.835586,-128
5058.836594,-160
5058.837548,-185
5058.838579,-226
5058.839565,-267
5058.840545,-264
5058.841518,-237
5058.842553,-205
5058.843541,-164
5058.844542,-123
5058.845564,-124
5058.846503,-125
5058.847524,-94
5058.848512,-34
5058.849526,-2
5058.850513,-50
5058.851553,-77
5058.852493,-74
5058.853471,-108
5058.854578,-162
5058.855433,-197
5058.856452,-197
5058.857449,-159
5058.858414,-167
5058.859687,-192
5058.860733,-211
5058.861731,-202
5058.862602,-159
5058.863429,-155
5058.864388,-144
5058.865427,-41
5058.866383,95
5058.86739,158
5058.868356,209
5058.869362,260
5058.870374,315
5058.871357,363
5058.872436,384
5058.873344,394
5058.874728,394
5058.875409,380
5058.877824,396
5058.877855,412
5058.878333,441
5058.879375,524
5058.880319,619
5058.881325,715
5058.88241,837
5058.883267,957
5058.884353,1010
5058.885337,971
5058.88628,897
5058.887351,862
5058.888311,850
5058.88934,739
5058.89022,568
5058.891185,415
5058.892237,349
5058.893217,320
5058.894187,285
5058.895163,259
5058.896229,203
5058.897168,74
5058.898144,-96
5058.89914,-305
5058.900184,-472
5058.901167,-558
5058.902146,-582
5058.903146,-566
5058.904133,-512
5058.905143,-414
5058.906194,-315
5058.907111,-237
5058.908104,-193
5058.909119,-218
5058.910063,-259
5058.911086,-277
5058.912068,-319
5058.913362,-319
5058.914048,-281
5058.915203,-234
5058.916081,-199
5058.917116,-191
5058.918035,-205
5058.919043,-185
5058.920006,-169
5058.921009,-184
5058.921991,-239
5058.923023,-282
5058.923967,-264
5058.924989,-221
5058.926009,-151
5058.926961,-89
5058.927952,-59
5058.928968,-21
5058.929964,23
5058.931277,61
5058.93209,47
5058.932924,-2
5058.933987,44
5058.934923,87
5058.936152,-3
5058.936905,-156
5058.937911,-210
5058.93897,-188
5058.940116,-128
5058.940916,-46
5058.941889,-5
5058.942872,0
5058.943881,1
5058.944848,3
5058.94587,13
5058.946862,23
5058.947906,40
5058.948824,2
5058.949937,-66
5058.950849,-68
5058.951828,-7
5058.952858,46
5058.953873,27
5058.954795,-53
5058.955843,-144
5058.95678,-166
5058.957739,-144
5058.958752,-171
5058.95978,-242
5058.960758,-276
5058.961765,-244
5058.962794,-170
5058.963776,-29
5058.964797,59
5058.965698,21
5058.966765,-65
5058.967759,-109
5058.968806,-68
5058.96975,53
5058.970729,117
5058.971679,111
5058.972683,96
5058.973681,79
5058.974698,18
5058.975656,-60
5058.976651,-80
5058.977655,-119
5058.978629,-238
5058.97966,-282
5058.980637,-208
5058.981744,-98
5058.98261,-27
5058.98361,16
5058.984595,39
5058.985679,45
5058.986568,39
5058.987539,8
5058.988571,19
5058.989582,58
5058.990599,59
5058.991635,44
5058.992666,31
5058.993549,24
5058.994593,-37
5058.995512,-131
5058.996541,-154
5058.997509,-83
5058.99847,9
5058.999582,59
5059.00059,42
5059.001448,-35
5059.002479,-110
5059.003519,-104
5059.004487,-28
5059.0055,-3
5059.006412,-61
5059.007418,-136
5059.008411,-145
5059.00944,-126
5059.010405,-81
5059.011436,-16
5059.012397,85
5059.013451,176
5059.014377,129
5059.015375,13
5059.01637,-62
5059.017431,-31
5059.018371,53
5059.019354,119
5059.020345,131
5059.021356,89
5059.022418,36
5059.023335,4
5059.024325,1
5059.025355,24
5059.026301,49
5059.027489,69
5059.028269,99
5059.029358,70
5059.03027,21
5059.031336,27
5059.032305,64
5059.03327,88
5059.034285,123
5059.035527,158
5059.036452,176
5059.037305,144
5059.038245,59
5059.039271,7
5059.040225,48
5059.0412,86
5059.042186,110
5059.043161,147
5059.044224,114
5059.04517,30
5059.046145,-20
5059.047187,-8
5059.048162,16
5059.049159,8
5059.050151,-30
5059.051253,-38
5059.05212,-26
5059.053134,-42
5059.054141,-43
5059.055091,-30
5059.056062,23
5059.057125,65
5059.058086,72
5059.059089,129
5059.060137,218
5059.061129,295
5059.06215,295
5059.063079,223
5059.064054,198
5059.065042,205
5059.066015,178
5059.067057,161
5059.068029,175
5059.069024,162
5059.07003,140
5059.071068,127
5059.071964,140
5059.073306,104
5059.073972,41
5059.075007,24
5059.075965,52
5059.076964,56
5059.077936,69
5059.079071,76
5059.079948,58
5059.080962,31
5059.081906,14
5059.082919,22
5059.083928,31
5059.085292,-5
5059.085894,-30
5059.086908,5
5059.08788,43
5059.088897,83
5059.089954,125
5059.090884,142
5059.091913,166
5059.092903,192
5059.093827,243
5059.094862,321
5059.096032,360
5059.096794,301
5059.097831,216
5059.098788,140
5059.099818,115
5059.100788,181
5059.10179,299
5059.102813,370
5059.103783,319
5059.104752,203
5059.105822,103
5059.106843,37
5059.107736,45
5059.108777,83
5059.109779,114
5059.110736,131
5059.11175,165
5059.112776,249
5059.113702,377
5059.114732,482
5059.115698,536
5059.116733,551
5059.117801,524
5059.118832,456
5059.119714,394
5059.120643,308
5059.121807,196
5059.122895,144
5059.123671,127
5059.124744,131
5059.125658,168
5059.126686,187
5059.127625,109
5059.128611,33
5059.129786,81
5059.130591,143
5059.131603,132
5059.132577,104
5059.13373,91
5059.134583,101
5059.135589,98
5059.136546,129
5059.137544,169
5059.138633,155
5059.139519,129
5059.140711,134
5059.141482,178
5059.142556,259
5059.143521,284
5059.144527,242
5059.145498,197
5059.146509,133
5059.147497,125
5059.148484,167
5059.149491,130
5059.150461,41
5059.151729,-35
5059.152462,-48
5059.153435,-33
5059.154453,-31
5059.155523,-24
5059.156425,-34
5059.15744,-27
5059.158608,-31
5059.159466,-74
5059.160426,-127
5059.161411,-119
5059.162566,-71
5059.16337,-47
5059.164389,-72
5059.165371,-136
5059.166364,-204
5059.167334,-244
5059.168437,-244
5059.169373,-252
5059.170384,-237
5059.17145,-197
5059.17231,-120
5059.17332,-75
5059.1749,-70
5059.175347,-26
5059.17632,-9
5059.177281,-31
5059.178309,-105
5059.179277,-207
5059.180291,-309
5059.181267,-389
5059.182267,-399
5059.183263,-378
5059.184222,-355
5059.18527,-276
5059.186233,-137
5059.187251,24
5059.188356,107
5059.18922,103
5059.190258,66
5059.191337,30
5059.192342,-32
5059.193252,-66
5059.194267,-85
5059.195174,-124
5059.196231,-198
5059.197241,-275
5059.198167,-304
5059.199175,-287
5059.200134,-278
5059.20112,-265
5059.202119,-252
5059.20309,-276
5059.204113,-336
5059.20522,-371
5059.206338,-292
5059.207114,-159
