timestamp,New ECG Sample
2880.644176,45
2880.645189,4
2880.646178,-56
2880.647173,-82
2880.648181,-59
2880.649135,-47
2880.650126,-54
2880.651117,-65
2880.65217,-58
2880.653204,-15
2880.654089,60
2880.655085,105
2880.656073,58
2880.657095,-12
2880.658066,-14
2880.659048,22
2880.660056,41
2880.661071,44
2880.662099,41
2880.663042,37
2880.664082,21
2880.66502,-73
2880.665997,-231
2880.667036,-346
2880.668012,-340
2880.669023,-234
2880.67001,-86
2880.671002,33
2880.671992,78
2880.67299,88
2880.673961,113
2880.674951,105
2880.675945,48
2880.676937,23
2880.677902,15
2880.678957,-16
2880.679892,-67
2880.680974,-94
2880.681925,-87
2880.682915,-120
2880.683902,-161
2880.684891,-178
2880.68589,-163
2880.686884,-79
2880.687857,5
2880.688892,19
2880.689837,15
2880.690862,5
2880.69184,12
2880.692831,36
2880.693828,37
2880.694812,-40
2880.69584,-111
2880.696815,-135
2880.697825,-111
2880.698779,-92
2880.699768,-119
2880.700777,-148
2880.701902,-118
2880.702777,-37
2880.703774,39
2880.70475,51
2880.705758,34
2880.706743,28
2880.707737,48
2880.708762,76
2880.709737,95
2880.710719,65
2880.711706,-36
2880.71438,-134
2880.714512,-142
2880.714686,-97
2880.715695,-109
2880.716663,-157
2880.717654,-135
2880.718677,-102
2880.719643,-117
2880.720635,-46
2880.721636,47
2880.722698,62
2880.723624,40
2880.724644,49
2880.725607,60
2880.726593,19
2880.72759,-26
2880.728588,-46
2880.729615,-36
2880.730653,-11
2880.731558,-15
2880.732573,-69
2880.733561,-115
2880.734565,-125
2880.735549,-81
2880.736539,-28
2880.737525,-23
2880.738522,-23
2880.739505,27
2880.74051,76
2880.74151,96
2880.742504,126
2880.743477,124
2880.744491,73
2880.745494,-45
2880.746487,-166
2880.747491,-213
2880.748467,-195
2880.749456,-175
2880.750441,-138
2880.751475,-103
2880.752445,-65
2880.753415,-32
2880.754501,-23
2880.755409,-37
2880.756402,-12
2880.757401,32
2880.758402,44
2880.759384,24
2880.760385,2
2880.761368,-3
2880.762358,-48
2880.763345,-108
2880.764367,-126
2880.765334,-100
2880.766341,-54
2880.767335,-6
2880.768362,20
2880.769325,7
2880.770324,-26
2880.771331,-88
2880.772289,-160
2880.773276,-147
2880.774282,-77
2880.775282,-11
2880.776696,11
2880.77831,3
2880.77834,-31
2880.779261,-101
2880.780266,-125
2880.781254,-62
2880.782249,12
2880.783224,35
2880.784313,29
2880.785293,29
2880.786215,9
2880.787215,-34
2880.788204,-72
2880.789179,-78
2880.790174,-62
2880.791174,-16
2880.792157,78
2880.793158,115
2880.794157,65
2880.795185,45
2880.796165,79
2880.797135,52
2880.798139,10
2880.799173,-24
2880.800196,-85
2880.801109,-109
2880.802096,-67
2880.803105,-14
2880.804123,44
2880.805133,129
2880.806093,182
2880.807116,130
2880.808077,71
2880.809071,84
2880.810073,135
2880.811035,171
2880.812058,139
2880.813054,20
2880.81405,-110
2880.815037,-132
2880.816018,-105
2880.817001,-126
2880.817997,-146
2880.818981,-124
2880.819993,-58
2880.820965,5
2880.821959,43
2880.823008,66
2880.82397,74
2880.824967,81
2880.825961,72
2880.826961,61
2880.827938,60
2880.828945,39
2880.829893,-4
2880.83092,-34
2880.831889,-39
2880.832932,-56
2880.833912,-63
2880.834909,-52
2880.835878,-18
2880.836864,10
2880.837872,9
2880.838868,56
2880.839849,117
2880.840848,107
2880.841862,58
2880.842853,61
2880.843842,107
2880.844827,110
2880.84582,36
2880.846803,-75
2880.847811,-148
2880.8488,-160
2880.849808,-174
2880.850888,-195
2880.851755,-194
2880.852773,-175
2880.853786,-85
2880.854776,50
2880.855751,137
2880.856746,136
2880.857763,106
2880.858731,62
2880.859743,10
2880.860735,-50
2880.861694,-95
2880.862705,-125
2880.863687,-143
2880.864711,-133
2880.865685,-134
2880.866696,-147
2880.867694,-149
2880.86867,-90
2880.869658,-50
2880.870654,-36
2880.871661,-28
2880.872648,-1
2880.873627,4
2880.874631,10
2880.875618,13
2880.876613,16
2880.877601,27
2880.878584,4
2880.879616,-20
2880.880591,-41
2880.88159,-84
2880.882579,-98
2880.883564,-71
2880.884572,-59
2880.885554,-52
2880.886636,-70
2880.887566,-46
2880.888584,8
2880.889512,52
2880.890534,63
2880.891499,66
2880.892482,72
2880.893513,81
2880.894493,85
2880.895499,66
2880.896472,66
2880.897488,86
2880.898464,103
2880.899565,82
2880.900462,37
2880.901564,-55
2880.902416,-95
2880.903427,-76
2880.904418,-53
2880.905424,-18
2880.906414,30
2880.907389,30
2880.9084,-21
2880.909387,-36
2880.910376,-12
2880.911355,16
2880.912381,14
2880.913357,-32
2880.914345,-122
2880.915342,-196
2880.916365,-200
2880.917415,-173
2880.91833,-138
2880.91931,-116
2880.920311,-76
2880.921317,-18
2880.922347,32
2880.923292,48
2880.924281,51
2880.925274,81
2880.926271,107
2880.927265,107
2880.928245,62
2880.929246,-11
2880.930247,-60
2880.931239,-89
2880.932237,-79
2880.933238,-58
2880.934243,-41
2880.935251,-2
2880.936214,65
2880.937194,149
2880.938184,198
2880.939185,216
2880.94016,273
2880.941169,340
2880.942191,428
2880.94316,549
2880.944119,623
2880.945153,616
2880.946158,606
2880.947125,627
2880.948129,644
2880.949114,651
2880.950157,651
2880.951143,646
2880.952123,615
2880.953097,549
2880.954211,493
2880.955103,453
2880.956096,394
2880.957041,326
2880.958065,288
2880.95907,257
2880.960063,128
2880.961036,-20
2880.962096,-116
2880.96302,-163
2880.964038,-173
2880.965304,-203
2880.966753,-254
2880.968005,-275
2880.96806,-273
2880.968989,-280
2880.969971,-289
2880.970961,-301
2880.97196,-297
2880.972943,-268
2880.973923,-252
2880.974953,-223
2880.975936,-224
2880.976927,-254
2880.977924,-224
2880.978926,-167
2880.979907,-181
2880.980972,-228
2880.981912,-242
2880.982936,-256
2880.983938,-243
2880.984906,-162
2880.985878,-126
2880.986859,-168
2880.987868,-204
2880.988849,-170
2880.989839,-81
2880.990837,37
2880.991817,110
2880.992813,38
2880.993811,-91
2880.99482,-161
2880.995823,-187
2880.997025,-168
2880.997842,-131
2880.998809,-102
2880.999817,-102
2881.000761,-125
2881.001763,-143
2881.002768,-144
2881.003756,-144
2881.004747,-135
2881.005746,-103
2881.006724,-60
2881.007722,-17
2881.008732,15
2881.009717,40
2881.010716,72
2881.011731,82
2881.012728,53
2881.013716,-10
2881.014671,-109
2881.01568,-174
2881.016668,-182
2881.017638,-141
2881.018744,-96
2881.019634,-95
2881.020754,-90
2881.021615,-73
2881.022659,-84
2881.0237,-97
2881.024621,-86
2881.025611,-36
2881.026622,25
2881.027633,33
2881.028644,-8
2881.029655,-44
2881.030665,-60
2881.031566,-114
2881.032577,-167
2881.033551,-200
2881.034537,-202
2881.035563,-190
2881.036527,-217
2881.037541,-223
2881.038534,-178
2881.039534,-68
2881.040517,68
2881.041484,151
2881.042481,188
2881.043499,180
2881.04449,92
2881.045457,-20
2881.046474,-69
2881.047478,-80
2881.048444,-81
2881.04948,-88
2881.050424,-124
2881.051425,-139
2881.052406,-92
2881.0534,-6
2881.054372,95
2881.0554,144
2881.056411,140
2881.05736,151
2881.058366,165
2881.059367,147
2881.060365,75
2881.061372,-5
2881.062356,-62
2881.063355,-95
2881.064351,-125
2881.065314,-127
2881.066331,-95
2881.06729,-35
2881.068326,35
2881.069313,66
2881.070302,56
2881.071276,15
2881.072271,-38
2881.073262,-57
2881.074262,-28
2881.075244,0
2881.076248,6
2881.077708,-2
2881.078532,27
2881.079246,79
2881.080193,95
2881.081211,44
2881.082207,-3
2881.083201,-48
2881.084187,-93
2881.0852,-101
2881.086175,-97
2881.087168,-90
2881.088172,-40
2881.089151,37
2881.090157,133
2881.091144,183
2881.092151,155
2881.093126,119
2881.094139,74
2881.095126,36
2881.096123,37
2881.097095,14
2881.098085,-30
2881.099083,-92
2881.10008,-134
2881.10117,-114
2881.102081,-53
2881.103072,-20
2881.104063,-41
2881.105046,-73
2881.10606,-46
2881.10706,26
2881.108033,103
2881.109029,134
2881.110005,125
2881.111028,98
2881.112,54
2881.112999,60
2881.114054,57
2881.11497,-33
2881.115985,-125
2881.116971,-131
2881.117999,-70
2881.118982,-23
2881.11996,5
2881.120948,3
2881.121949,17
2881.12293,82
2881.123918,121
2881.124907,102
2881.125915,67
2881.126955,18
2881.127915,-3
2881.128893,16
2881.129896,25
2881.130919,0
2881.131864,-5
2881.132874,-47
2881.133871,-150
2881.134871,-173
2881.135912,-53
2881.136879,59
2881.137864,54
2881.138832,-38
2881.139815,-81
2881.140818,-48
2881.141807,-2
2881.1428,49
2881.143814,79
2881.144786,47
2881.145807,-48
2881.146773,-92
2881.147779,-65
2881.14877,-40
2881.149769,-14
2881.150793,36
2881.151774,79
2881.152757,95
2881.153744,107
2881.154748,142
2881.155727,195
2881.156731,242
2881.157703,236
2881.15871,185
2881.159742,129
2881.16069,53
2881.161717,-1
2881.162661,5
2881.163669,10
2881.164648,27
2881.165683,66
2881.166647,68
2881.167684,38
2881.168635,4
2881.169623,-48
2881.170654,-39
2881.171648,24
2881.172613,78
2881.173596,51
2881.174583,29
2881.175574,32
2881.176573,39
2881.177568,55
2881.178606,69
2881.179575,67
2881.180572,43
2881.181558,-13
2881.182565,-81
2881.183562,-118
2881.18455,-103
2881.185561,-43
2881.186518,9
2881.18751,63
2881.188497,94
2881.189515,82
2881.190471,77
2881.191487,115
2881.1925,100
2881.193481,53
2881.19448,38
2881.195472,18
2881.196469,-36
2881.197446,-61
2881.198458,9
2881.199434,80
2881.200411,58
2881.201409,-42
2881.202428,-95
2881.203416,-92
2881.204396,-85
2881.205455,-51
2881.206399,24
2881.207384,71
2881.208365,80
2881.209373,58
2881.21038,23
2881.211373,-32
2881.212342,-87
2881.213337,-89
2881.21435,-90
2881.215343,-131
2881.216304,-153
2881.217457,-177
2881.218334,-228
2881.219315,-234
2881.220316,-169
2881.221293,-79
2881.222281,15
2881.223262,86
2881.22427,117
2881.225255,123
2881.226238,106
2881.22725,39
2881.228247,-72
2881.229249,-174
2881.230235,-220
2881.231214,-221
2881.232213,-215
2881.233234,-219
2881.234199,-220
2881.235229,-210
2881.2362,-141
2881.237192,-88
2881.238184,-85
2881.239155,-59
2881.240179,9
2881.241142,84
2881.24215,118
2881.243132,110
2881.244162,95
2881.245169,65
2881.246132,-16
2881.247117,-110
2881.248152,-126
2881.249115,-78
2881.250116,-38
2881.251072,-32
2881.252063,-47
2881.253082,-30
2881.254081,-13
2881.255051,-25
2881.256059,-34
2881.257048,15
2881.258036,85
2881.259035,106
2881.260042,101
2881.261003,89
2881.262007,24
2881.26301,-63
2881.264083,-125
2881.264998,-116
2881.265984,-67
2881.267014,-43
2881.267978,-52
2881.268955,-54
2881.269971,-45
2881.270939,-28
2881.271908,-32
2881.27296,-31
2881.273931,-3
2881.274927,8
2881.275924,-17
2881.276921,-69
2881.277904,-104
2881.278903,-49
2881.279881,-50
2881.280877,-142
2881.281891,-202
2881.282878,-210
2881.283877,-199
2881.284901,-180
2881.285866,-120
2881.286848,-7
2881.287856,102
2881.288828,159
2881.289837,187
2881.29083,172
2881.291788,116
2881.292818,105
2881.293799,138
2881.294843,142
2881.295802,84
2881.29678,15
2881.297794,-29
2881.298772,-18
2881.299778,4
2881.300749,-10
2881.301752,-35
2881.302744,-43
2881.303759,-13
2881.304744,57
2881.305747,117
2881.306818,128
2881.307705,90
2881.308701,56
2881.309722,43
2881.310688,19
2881.311717,-32
2881.312686,-89
2881.313653,-107
2881.314668,-86
2881.315665,-79
2881.31667,-121
2881.317631,-157
2881.318648,-156
2881.319619,-141
2881.320619,-105
2881.321594,-65
2881.322593,-51
2881.323598,-62
2881.324598,-43
2881.325607,-22
2881.326597,-34
2881.32758,-73
2881.328571,-97
2881.329593,-118
2881.330563,-115
2881.331574,-88
2881.332538,-50
2881.333556,-23
2881.33453,-27
2881.335534,-28
2881.336522,-37
2881.337534,-18
2881.338513,71
2881.339477,116
2881.340467,85
2881.341498,68
2881.342488,55
2881.343474,4
2881.344463,-20
2881.345445,-9
2881.346471,-18
2881.347471,-85
2881.348436,-149
2881.349425,-189
2881.350409,-175
2881.351412,-109
2881.352419,-56
2881.353425,-11
2881.354412,30
2881.35539,80
2881.356391,92
2881.357369,111
2881.358371,124
2881.359372,113
2881.360345,22
2881.361351,-67
2881.362337,-100
2881.36333,-102
2881.364348,-120
2881.365361,-115
2881.366329,-98
2881.367311,-78
2881.368323,-41
2881.369308,-14
2881.370315,25
2881.371282,70
2881.372297,71
2881.373237,49
2881.374479,28
2881.37523,3
2881.376254,16
2881.377248,4
2881.378262,-68
2881.379239,-128
2881.380214,-120
2881.381246,-71
2881.382232,-14
2881.383201,28
2881.384263,39
2881.385191,8
2881.386247,-19
2881.387182,13
2881.388194,47
2881.38916,47
2881.390175,-5
2881.391179,-42
2881.392165,2
2881.393158,66
2881.394161,81
2881.395195,16
2881.396134,-73
2881.397102,-131
2881.398084,-112
2881.399135,-76
2881.400109,-66
2881.4011,-47
2881.402092,4
2881.403084,54
2881.40406,65
2881.405045,44
2881.40605,66
2881.407044,157
2881.408015,235
2881.409043,209
2881.410034,112
2881.41102,55
2881.412023,21
2881.413003,-9
2881.413996,-35
2881.415005,-27
2881.415967,-3
2881.417007,-1
2881.417995,-14
2881.418952,-3
2881.41997,38
2881.420927,73
2881.421948,68
2881.422929,77
2881.423921,100
2881.424921,100
2881.425895,100
2881.426898,110
2881.427907,66
2881.428886,-22
2881.429883,-79
2881.430903,-102
2881.431876,-115
2881.432892,-111
2881.433836,-76
2881.434914,-51
2881.435863,-76
2881.436835,-83
2881.437906,-43
2881.438856,1
2881.439791,23
2881.440803,19
2881.441809,-20
2881.442803,-44
2881.443807,-67
2881.444783,-100
2881.445774,-111
2881.44676,-75
2881.447778,-23
2881.448768,9
2881.449736,-16
2881.450734,-103
2881.451746,-180
2881.452703,-188
2881.453879,-151
2881.454734,-83
2881.455707,-9
2881.456703,-20
2881.457682,-67
2881.458689,-48
2881.45969,-36
2881.460681,-36
2881.461654,-64
2881.462657,-126
2881.46365,-158
2881.464648,-146
2881.465719,-115
2881.466635,-98
2881.467612,-64
2881.468631,-28
2881.469633,-15
2881.470636,-28
2881.471603,-27
2881.472619,-2
2881.473624,26
2881.474667,47
2881.475566,44
2881.476556,-22
2881.477544,-86
2881.478553,-121
2881.479537,-153
2881.480521,-206
2881.481562,-262
2881.482525,-305
2881.483543,-279
2881.4845,-174
2881.485505,-60
2881.486496,16
2881.487484,55
2881.488488,59
2881.48947,57
2881.490476,61
2881.491455,57
2881.492456,41
2881.49345,39
2881.494449,39
2881.49543,8
2881.496433,-58
2881.497497,-119
2881.498396,-102
2881.499427,-28
2881.500405,14
2881.501384,-20
2881.502369,-25
2881.503387,-7
2881.50443,-27
2881.505368,-8
2881.506371,44
2881.507355,88
2881.508346,151
2881.509331,242
2881.51032,311
2881.511452,348
2881.512305,346
2881.513309,366
2881.514313,435
2881.515286,515
2881.516306,566
2881.517317,590
2881.518286,611
2881.519273,639
2881.520272,667
2881.521254,727
2881.522307,789
2881.523233,794
2881.524259,721
2881.525228,584
2881.526219,451
2881.527207,326
2881.528231,193
2881.529184,74
2881.530189,-29
2881.531232,-120
2881.532243,-190
2881.533199,-207
2881.534349,-198
2881.535196,-211
2881.536153,-240
2881.537134,-266
2881.538162,-276
2881.539128,-370
2881.540108,-489
2881.54112,-541
2881.542112,-475
2881.543102,-382
2881.544096,-326
2881.545093,-297
2881.546098,-292
2881.547085,-312
2881.548057,-331
2881.549064,-326
2881.550063,-288
2881.551065,-245
2881.552076,-231
2881.553042,-221
2881.554024,-202
2881.555022,-147
2881.556024,-80
2881.557013,-64
2881.558015,-81
2881.558988,-92
2881.559988,-110
2881.560979,-102
2881.561984,-94
2881.562973,-129
2881.563953,-182
2881.564979,-179
2881.565977,-169
2881.56696,-170
2881.567975,-146
2881.568945,-122
2881.569938,-102
2881.570934,-64
2881.571937,-54
2881.572917,-55
2881.573896,-12
2881.575072,67
2881.575912,115
2881.576906,111
2881.577888,80
2881.578884,53
2881.579862,-16
2881.580916,-173
2881.581855,-303
2881.582862,-351
2881.583876,-333
2881.584843,-251
2881.585895,-158
2881.586822,-118
2881.587807,-99
2881.5888,-75
2881.589803,-54
2881.590796,-66
2881.591777,-104
2881.592778,-76
2881.593766,22
2881.594752,78
2881.595763,48
2881.596735,33
2881.597761,9
2881.59874,-38
2881.599759,-102
2881.600759,-178
2881.601741,-195
2881.602741,-104
2881.603709,4
2881.604721,25
2881.605699,-8
2881.606696,-52
2881.607679,-32
2881.608678,18
2881.609679,43
2881.610654,29
2881.611681,12
2881.612658,-20
2881.613643,-59
2881.614645,-123
2881.615609,-212
2881.616647,-253
2881.617626,-180
2881.618593,-63
2881.619589,7
2881.620611,33
2881.621644,20
2881.622577,-34
2881.623569,-70
2881.624555,-46
2881.625554,0
2881.626541,29
2881.627546,13
2881.628537,-17
2881.629555,-94
2881.630534,-184
2881.631535,-226
2881.632522,-220
2881.633536,-177
2881.634495,-136
2881.635483,-153
2881.636499,-152
2881.637495,-44
2881.638486,97
2881.639473,171
2881.640469,175
2881.641451,140
2881.642435,80
2881.643433,9
2881.64443,-33
2881.645408,-56
2881.646392,-90
2881.647471,-103
2881.64842,-92
2881.649407,-84
2881.650413,-69
2881.651409,-44
2881.652394,-31
2881.653408,-22
2881.654378,-27
2881.655347,-30
2881.656354,10
2881.657407,50
2881.658363,56
2881.659357,68
2881.660332,72
2881.66132,34
2881.662323,-45
2881.663312,-104
2881.664309,-152
2881.665338,-138
2881.666311,-55
2881.66732,19
2881.668315,58
2881.669274,111
2881.670269,169
2881.671262,223
2881.672262,253
2881.673247,225
2881.674251,137
2881.675221,26
2881.676261,31
2881.677213,99
2881.67827,132
2881.679201,77
2881.680193,-19
2881.681206,-114
2881.682196,-149
2881.683178,-124
2881.684166,-62
2881.685194,-27
2881.68618,0
2881.687144,61
2881.688163,126
2881.689159,129
2881.690132,129
2881.691131,196
2881.692132,226
2881.693141,174
2881.694095,90
2881.695112,23
2881.696103,-3
2881.697119,-12
2881.698094,-36
2881.699102,-39
2881.700098,-58
2881.701076,-129
2881.702058,-159
2881.703079,-125
2881.704046,-83
2881.705059,-43
2881.706047,6
2881.707018,17
2881.708018,28
2881.708986,72
2881.709977,84
2881.710983,41
2881.711995,10
2881.712991,-6
2881.714022,-33
2881.714972,-27
2881.715954,8
2881.716969,28
2881.717941,-32
2881.718975,-139
2881.719908,-172
2881.720948,-87
2881.721938,68
2881.722918,196
2881.723915,213
2881.725331,114
2881.726075,-18
2881.726887,-76
2881.727873,-80
2881.728876,-53
2881.729883,0
2881.730921,38
2881.731852,49
2881.732835,19
2881.733836,-21
2881.734845,-63
2881.735857,-66
2881.73682,4
2881.737835,93
2881.738792,160
2881.739807,204
2881.740788,208
2881.74178,169
2881.742777,107
2881.743774,29
2881.744751,-22
2881.745773,-50
2881.746752,-64
2881.747764,-81
2881.74875,-77
2881.749754,-77
2881.750738,-82
2881.751733,-74
2881.752734,-58
2881.753704,-57
2881.754687,-49
2881.755709,-34
2881.75669,-11
2881.757677,45
2881.758677,103
2881.759654,144
2881.760648,149
2881.761701,114
2881.762686,42
2881.763641,-34
2881.76464,-91
2881.76561,-103
2881.76664,-63
2881.767645,-33
2881.768644,-1
2881.769591,53
2881.770587,43
2881.771596,-1
2881.772642,11
2881.773594,93
2881.77458,158
2881.775557,193
2881.776549,196
2881.777568,147
2881.778561,61
2881.779527,-48
2881.780532,-128
2881.781527,-122
2881.782508,-46
2881.783533,-2
2881.78448,-26
2881.785525,-49
2881.786483,-50
2881.787601,-37
2881.788921,-15
2881.79084,-4
2881.790886,-23
2881.79147,-48
2881.792465,-24
2881.793465,-1
2881.794481,-30
2881.795454,-56
2881.796465,-66
2881.797494,-82
2881.798448,-121
2881.799437,-175
2881.80045,-171
2881.8014,-130
2881.802384,-121
2881.803421,-144
2881.804369,-139
2881.805362,-108
2881.806364,-64
2881.807435,4
2881.80836,46
2881.809354,60
2881.810334,48
2881.81133,29
2881.812309,-18
2881.813307,-64
2881.814333,-94
2881.815297,-148
2881.816293,-217
2881.817285,-253
2881.818285,-236
2881.819267,-182
2881.820253,-149
2881.82125,-129
2881.822258,-110
2881.823246,-92
2881.824246,-65
2881.825225,-38
2881.826193,-22
2881.827224,-10
2881.82824,6
2881.829217,13
2881.830198,3
2881.831198,11
2881.832179,43
2881.833181,67
2881.834189,35
2881.835194,-38
2881.836224,-92
2881.837164,-94
2881.838153,-66
2881.839128,-45
2881.840134,-50
2881.841132,-78
2881.842127,-97
2881.843106,-105
2881.844104,-76
2881.845116,-54
2881.846147,-45
2881.847097,-67
2881.84811,-114
2881.849078,-130
2881.850108,-113
2881.851181,-107
2881.852064,-102
2881.853039,-30
2881.854075,61
2881.85506,96
2881.856184,86
2881.857047,55
2881.858024,65
2881.859004,109
2881.860002,132
2881.860993,115
2881.862004,72
2881.863007,37
2881.864026,-2
2881.864959,-65
2881.865956,-137
2881.867012,-182
2881.867945,-191
2881.868966,-177
2881.869959,-132
2881.87092,-62
2881.871923,-25
2881.872922,-50
2881.873951,-86
2881.874895,-110
2881.87587,-78
2881.876886,22
2881.877878,102
2881.87889,117
2881.879892,85
2881.880932,32
2881.881897,-31
2881.882859,-85
2881.883865,-173
2881.884861,-221
2881.885917,-178
2881.886886,-48
2881.88821,106
2881.888824,138
2881.889862,76
2881.890806,22
2881.891797,23
2881.892773,35
2881.893779,35
2881.894767,39
2881.895766,34
2881.896749,14
2881.897735,-10
2881.899245,-4
2881.900557,8
2881.900739,-52
2881.901724,-180
2881.902722,-242
2881.903722,-171
2881.90471,-66
2881.905701,34
2881.906679,116
2881.907678,170
2881.908672,158
2881.909654,130
2881.910672,98
2881.911645,66
2881.912677,5
2881.913643,-71
2881.914654,-130
2881.915643,-154
2881.916614,-124
2881.917609,-87
2881.918604,-75
2881.919576,-57
2881.920606,-38
2881.921591,29
2881.92257,79
2881.923557,73
2881.924565,80
2881.925556,104
2881.926538,78
2881.927531,-28
2881.928541,-111
2881.92957,-122
2881.93054,-127
2881.931528,-135
2881.932518,-161
2881.933494,-201
2881.934511,-258
2881.935492,-264
2881.936514,-188
2881.937531,-77
2881.938507,-13
2881.939511,52
2881.940484,108
2881.941494,140
2881.942435,138
2881.943449,100
2881.944446,63
2881.945497,9
2881.946434,-42
2881.947465,-22
2881.948415,24
2881.949446,33
2881.950399,7
2881.951412,-7
2881.952665,-51
2881.953407,-103
2881.95439,-101
2881.955382,-48
2881.956333,25
2881.957361,95
2881.958352,137
2881.959349,149
2881.960358,150
2881.961373,111
2881.96233,-23
2881.96332,-169
2881.964342,-225
2881.965294,-197
2881.966291,-202
2881.967301,-246
2881.968266,-254
2881.969359,-198
2881.970293,-134
2881.971309,-90
2881.972368,18
2881.97327,126
2881.974286,131
2881.975236,126
2881.976221,176
2881.977203,195
2881.978255,145
2881.981726,56
2881.981756,-38
2881.981855,-81
2881.98239,-81
2881.98388,-84
2881.984179,-63
2881.985144,3
2881.9862,132
2881.987202,239
2881.988213,262
2881.989131,223
2881.990156,126
2881.991124,-7
2881.992133,-98
2881.993136,-107
2881.994147,-56
2881.995125,7
2881.996109,38
2881.997078,16
2881.998102,-54
2881.999085,-112
2882.000074,-109
2882.001079,-74
2882.002069,-54
2882.003109,-55
2882.004048,-56
2882.005036,-63
2882.006039,-78
2882.007038,-76
2882.00803,-62
2882.009023,-51
2882.009992,-38
2882.010985,-47
2882.011962,-94
2882.012998,-174
2882.014093,-226
2882.015009,-207
2882.01598,-119
2882.016977,-73
2882.017955,-88
2882.018948,-100
2882.019925,-98
2882.020933,-83
2882.021898,-98
2882.022906,-119
2882.023919,-130
2882.024982,-120
2882.025915,-103
2882.026913,-115
2882.027899,-145
2882.028861,-141
2882.02989,-117
2882.030868,-89
2882.031851,-102
2882.03286,-150
2882.033838,-180
2882.034844,-194
2882.035837,-177
2882.036887,-175
2882.037829,-181
2882.038801,-130
2882.039802,-32
2882.040812,55
2882.041816,103
2882.042797,109
2882.043781,80
2882.0448,50
2882.045786,13
2882.046755,-54
2882.047777,-81
2882.04875,-51
2882.049745,-48
2882.050746,-82
2882.05176,-103
2882.052722,-56
2882.053704,-1
2882.054707,-4
2882.055692,-67
2882.056687,-97
2882.057706,-73
2882.058691,-49
2882.059653,-15
2882.060666,10
2882.061663,-27
2882.062653,-88
2882.063677,-132
2882.064657,-166
2882.065636,-176
2882.066622,-174
2882.06762,-129
2882.0686,-24
2882.069601,85
2882.070604,115
2882.071602,88
2882.07259,92
2882.073564,131
2882.074572,168
2882.07555,152
2882.076549,132
2882.077578,173
2882.078541,206
2882.079544,197
2882.08055,172
2882.081537,127
2882.082511,97
2882.083531,130
2882.084504,250
2882.085491,358
2882.086469,469
2882.087487,565
2882.088499,620
2882.089578,658
2882.090591,717
2882.091452,784
2882.092453,811
2882.093435,768
2882.094436,664
2882.095431,523
2882.096425,392
2882.097422,304
2882.098452,236
2882.099429,144
2882.100405,53
2882.101401,-24
2882.102386,-68
2882.103385,-77
2882.104378,-105
2882.105368,-148
2882.106354,-169
2882.107361,-180
2882.108348,-197
2882.109337,-195
2882.110309,-205
2882.111314,-233
2882.112327,-278
2882.113319,-350
2882.114321,-434
2882.115315,-486
2882.116297,-474
2882.1173,-437
2882.118256,-402
2882.119267,-323
2882.120274,-226
2882.121247,-155
2882.122267,-85
2882.123242,-42
2882.124236,-20
2882.125223,-34
2882.126229,-102
2882.127202,-190
2882.128235,-266
2882.129195,-281
2882.130213,-235
2882.131205,-204
2882.132201,-253
2882.133216,-322
2882.134214,-272
2882.13517,-155
2882.136311,-66
2882.13718,-27
2882.138153,-1
2882.139155,28
2882.14015,5
2882.141123,-75
2882.142121,-124
2882.143113,-74
2882.144107,5
2882.145092,30
2882.146117,-7
2882.147091,-45
2882.14809,-54
2882.149112,-52
2882.150078,-54
2882.151063,-70
2882.152063,-107
2882.153066,-205
2882.154051,-281
2882.155039,-241
2882.156036,-183
2882.157013,-189
2882.158001,-155
2882.15902,-88
2882.160011,-24
2882.160992,21
2882.162001,29
2882.162984,-29
2882.163978,-127
2882.164985,-213
2882.165978,-234
2882.16697,-220
2882.167926,-179
2882.168942,-94
2882.169947,-34
2882.170925,-21
2882.171939,-10
2882.172906,-1
2882.173898,-5
2882.174902,5
2882.175911,24
2882.176892,-1
2882.17792,-81
2882.178857,-167
2882.179869,-172
2882.180863,-156
2882.181873,-157
2882.182872,-154
2882.18384,-153
2882.184829,-124
2882.185835,-100
2882.186837,-67
2882.187818,-27
2882.18879,-23
2882.189795,-25
2882.19078,-16
2882.191804,7
2882.192791,21
2882.193785,22
2882.194771,-15
2882.195772,-72
2882.196753,-103
2882.197737,-120
2882.198722,-120
2882.199766,-94
2882.200751,-65
2882.201741,-39
2882.20271,-57
2882.203686,-91
2882.204694,-125
2882.205716,-127
2882.2067,-89
2882.207676,-19
2882.208666,51
2882.209652,59
2882.210655,77
2882.211668,84
2882.212662,15
2882.21363,-45
2882.214644,-55
2882.215604,-63
2882.21661,-84
2882.217635,-83
2882.218609,-85
2882.219605,-103
2882.220597,-88
2882.221582,-25
2882.222575,-19
2882.223566,-37
2882.224567,47
2882.225551,144
2882.226556,148
2882.227523,89
2882.228538,64
2882.229539,90
2882.230524,89
2882.231494,15
2882.232523,-54
2882.233514,-66
2882.234478,-70
2882.235504,-76
2882.236489,-38
2882.237495,33
2882.238472,27
2882.239481,-7
2882.240451,-8
2882.241448,30
2882.24245,66
2882.243451,48
2882.244436,-7
2882.245423,-32
2882.246442,8
2882.247419,33
2882.24843,-2
2882.249378,-36
2882.250379,-66
2882.25137,-89
2882.252372,-75
2882.253368,-22
2882.254364,47
2882.255362,83
2882.256381,92
2882.25735,119
2882.25833,172
2882.259323,210
2882.260333,223
2882.261347,196
2882.262313,152
2882.263323,111
2882.264307,52
2882.265291,4
2882.266306,-33
2882.267277,-73
2882.26828,-99
2882.269271,-113
2882.270271,-92
2882.271246,-58
2882.272231,-20
2882.273241,44
2882.274252,98
2882.275229,89
2882.276231,43
2882.277232,37
2882.278228,22
2882.279261,-49
2882.280206,-116
2882.281194,-168
2882.282153,-156
2882.28319,-100
2882.284201,-36
2882.285169,27
2882.286153,11
2882.28716,-49
2882.288131,-97
2882.289136,-77
2882.290119,0
2882.291135,101
2882.292116,200
2882.293152,244
2882.29411,240
2882.295111,192
2882.296112,118
2882.297096,78
2882.298069,58
2882.299071,8
2882.300092,-51
2882.301215,-49
2882.302066,-3
2882.303094,7
2882.304109,-23
2882.305051,-71
2882.306031,-78
2882.307032,-5
2882.308052,75
2882.309009,116
2882.309996,110
2882.311009,62
2882.312,19
2882.312983,-37
2882.313987,-91
2882.314972,-102
2882.315967,-68
2882.316963,-31
2882.317953,-4
2882.318973,24
2882.319947,45
2882.320937,52
2882.321991,56
2882.322975,74
2882.323921,106
2882.324903,123
2882.325906,112
2882.326887,69
2882.327878,20
2882.328875,17
2882.329864,37
2882.330887,19
2882.331871,-16
2882.332853,-67
2882.333866,-108
2882.334854,-156
2882.335849,-188
2882.336924,-155
2882.337913,-81
2882.338828,2
2882.339831,78
2882.340818,103
2882.341801,87
2882.342805,61
2882.343813,18
2882.34479,-8
2882.345762,-38
2882.346759,-100
2882.347763,-163
2882.354067,-141
2882.354075,-85
2882.354084,-92
2882.354092,-114
2882.354101,-85
2882.354109,-49
2882.354762,-2
2882.355728,82
2882.356766,144
2882.357683,112
2882.358688,28
2882.359687,-30
2882.360661,-76
2882.361662,-118
2882.362749,-143
2882.363657,-159
2882.364667,-220
2882.365648,-286
2882.36664,-323
2882.367647,-301
2882.368645,-213
2882.369607,-123
2882.370636,-59
2882.371648,-18
2882.372621,28
2882.373589,70
2882.374576,72
2882.375592,31
2882.376576,-18
2882.377555,-71
2882.378554,-131
2882.379558,-145
2882.380557,-121
2882.381551,-101
2882.382527,-102
2882.383537,-114
2882.384508,-144
2882.385513,-177
2882.386504,-182
2882.387516,-140
2882.388523,-77
2882.389485,-74
2882.390483,-130
2882.391478,-149
2882.392452,-111
2882.393457,-20
2882.394446,63
2882.39544,91
2882.396446,45
2882.397471,-58
2882.398524,-137
2882.399515,-144
2882.400422,-117
2882.401427,-115
2882.402399,-92
2882.403401,-67
2882.4044,-8
2882.405366,36
2882.406354,20
2882.407416,-12
2882.408364,-38
2882.409352,-45
2882.410367,-19
2882.41137,-32
2882.41235,-74
2882.413318,-120
2882.414354,-177
2882.415308,-190
2882.416306,-174
2882.417288,-165
2882.418325,-200
2882.419288,-225
2882.420281,-210
2882.421286,-136
2882.422273,-36
2882.423271,17
2882.424274,57
2882.425235,103
2882.426259,107
2882.427221,57
2882.42823,9
2882.429214,-44
2882.430205,-84
2882.431198,-91
2882.432191,-77
2882.433214,-97
2882.434186,-142
2882.435193,-142
2882.4362,-88
2882.437171,-56
2882.438169,-40
2882.439167,-27
2882.440135,-15
2882.441141,19
2882.442123,41
2882.443138,30
2882.444108,19
2882.445141,9
2882.446167,-33
2882.447123,-86
2882.448075,-170
2882.449098,-271
2882.450077,-335
2882.451092,-345
2882.452061,-259
2882.453093,-173
2882.454114,-142
2882.455047,-108
2882.456019,-41
2882.457038,44
2882.458009,92
2882.459063,86
2882.460019,54
2882.461001,-4
2882.462007,-75
2882.462988,-162
2882.464029,-206
2882.465065,-190
2882.465962,-181
2882.466971,-177
2882.467977,-146
2882.468954,-98
2882.469938,-81
2882.470948,-56
2882.471926,4
2882.472924,71
2882.473905,101
2882.474906,125
2882.475901,115
2882.476914,51
2882.477924,-26
2882.478889,-113
2882.47989,-223
2882.480879,-297
2882.481881,-297
2882.482891,-229
2882.483908,-179
2882.484865,-175
2882.485844,-153
2882.486825,-88
2882.487844,9
2882.48882,120
2882.48982,210
2882.490794,208
2882.491799,163
2882.492791,114
2882.493775,76
2882.494775,51
2882.495774,27
2882.496743,-7
2882.497768,-31
2882.498757,-46
2882.499757,-84
2882.500774,-125
2882.501731,-109
2882.502737,-42
2882.503731,48
2882.504739,98
2882.505705,95
2882.506693,61
2882.507705,-3
2882.508728,-47
2882.509685,-43
2882.510665,-60
2882.511691,-106
2882.512657,-141
2882.51366,-154
2882.5147,-162
2882.515621,-177
2882.516638,-204
2882.517614,-178
2882.518625,-123
2882.519604,-75
2882.520615,-6
2882.521614,61
2882.522595,111
2882.523599,123
2882.524597,120
2882.525582,114
2882.526593,81
2882.527578,8
2882.528561,-32
2882.529535,-52
2882.530552,-69
2882.531529,-64
2882.532532,-54
2882.533527,-74
2882.534512,-93
2882.535535,-89
2882.536555,-94
2882.537557,-76
2882.538476,-32
2882.539473,-2
2882.540573,-19
2882.541474,-9
2882.542461,37
2882.543465,93
2882.544463,140
2882.54544,164
2882.546465,73
2882.547479,-79
2882.548448,-181
2882.549409,-216
2882.550431,-186
2882.551407,-136
2882.552405,-89
2882.55339,-59
2882.554392,-30
2882.555387,42
2882.556384,96
2882.557386,116
2882.558352,116
2882.559348,93
2882.560348,90
2882.561359,117
2882.562383,112
2882.563334,46
2882.564337,-18
2882.565325,-54
2882.56632,-44
2882.567358,-45
2882.568332,-75
2882.56929,-111
2882.57032,-115
2882.571303,-109
2882.572289,-143
2882.573256,-133
2882.574263,-70
2882.575261,50
2882.576251,180
2882.577224,206
2882.578406,114
2882.579213,25
2882.580233,-39
2882.581255,-109
2882.582221,-149
2882.583206,-160
2882.584207,-188
2882.585178,-222
2882.586178,-198
2882.587158,-98
2882.588136,-21
2882.589199,-4
2882.590146,-7
2882.591158,-7
2882.592137,-12
2882.593123,-7
2882.594143,-8
2882.595121,-29
2882.59611,-65
2882.597113,-108
2882.598131,-145
2882.599083,-160
2882.600099,-172
2882.601183,-186
2882.602071,-198
2882.603055,-176
2882.60405,-125
2882.605052,-75
2882.606051,-32
2882.607021,-9
2882.608027,0
2882.609037,-28
2882.61004,-37
2882.61104,-15
2882.612015,-4
2882.613001,8
2882.614032,-14
2882.615102,-61
2882.615989,-105
2882.616986,-120
2882.617955,-97
2882.618945,-41
2882.61996,15
2882.620949,37
2882.621935,67
2882.622924,91
2882.623928,87
2882.624913,53
2882.625925,-3
2882.6269,-45
2882.627899,-94
2882.628915,-135
2882.629899,-154
2882.630892,-163
2882.631888,-166
2882.632873,-154
2882.633909,-126
2882.634868,-73
2882.635854,-2
2882.636841,44
2882.637815,16
2882.638849,5
2882.63983,60
2882.640804,135
2882.641813,189
2882.642805,181
2882.643803,138
2882.64482,102
2882.645799,104
2882.646769,108
2882.647783,126
2882.648766,178
2882.649802,235
2882.650757,285
2882.651759,347
2882.652765,427
2882.653737,538
2882.65474,650
2882.655724,706
2882.656694,701
2882.657925,699
2882.658704,713
2882.659699,733
2882.660682,744
2882.661674,708
2882.662681,610
2882.663637,483
2882.664742,367
2882.665658,266
2882.666647,173
2882.667707,106
2882.668707,73
2882.669613,3
2882.67066,-94
2882.671614,-167
2882.672601,-172
2882.673613,-176
2882.674571,-179
2882.6756,-184
2882.676602,-222
2882.677564,-263
2882.678574,-313
2882.679729,-371
2882.680556,-421
2882.681579,-464
2882.682544,-489
2882.683542,-501
2882.684528,-503
2882.685519,-474
2882.68655,-413
2882.687495,-301
2882.688476,-179
2882.689496,-123
2882.690571,-118
2882.691497,-144
2882.692478,-152
2882.693462,-133
2882.694457,-76
2882.695449,-47
2882.696442,-76
2882.697508,-97
2882.698444,-124
2882.699446,-181
2882.700433,-255
2882.701455,-255
2882.702413,-197
2882.70345,-177
2882.704427,-143
2882.705549,-83
2882.706428,-23
2882.707375,35
2882.708371,79
2882.709373,102
2882.710353,78
2882.711361,15
2882.71235,-46
2882.713363,-76
2882.714362,-55
2882.715359,-68
2882.716321,-157
2882.717326,-265
2882.718345,-277
2882.71929,-171
2882.720302,-51
2882.721326,17
2882.7223,38
2882.72329,-9
2882.724279,-65
2882.725267,-76
2882.726262,-92
2882.727241,-136
2882.728327,-174
2882.729271,-197
2882.730229,-215
2882.731232,-189
2882.732213,-107
2882.733223,-23
2882.734227,34
2882.735207,60
2882.736242,85
2882.737199,88
2882.738963,49
2882.7418,38
2882.74183,32
2882.741861,34
2882.74217,38
2882.743211,-59
2882.744162,-200
2882.745126,-223
2882.746113,-143
2882.747102,-93
2882.748171,-99
2882.74912,-118
2882.75012,-134
2882.751171,-120
2882.752093,-81
2882.753153,-65
2882.754064,-53
2882.755097,-9
2882.756069,26
2882.757032,21
2882.758041,38
2882.759032,76
2882.760097,87
2882.761012,70
2882.762014,-5
2882.763009,-90
2882.764078,-139
2882.765004,-155
2882.76601,-182
2882.767011,-194
2882.768003,-162
2882.769049,-135
2882.770014,-112
2882.770993,-63
2882.77199,-33
2882.77296,-17
2882.77395,-28
2882.774928,-84
2882.775927,-122
2882.776927,-100
2882.777936,-24
2882.778906,10
2882.779895,-31
2882.780893,-92
2882.781893,-101
2882.782887,-69
2882.783992,-46
2882.784995,-54
2882.785877,-85
2882.787146,-102
2882.78786,-68
2882.788942,30
2882.78983,140
2882.790834,190
2882.79184,205
2882.792845,181
2882.7938,150
2882.794799,109
2882.795827,30
2882.79677,-23
2882.797809,-18
2882.798807,-34
2882.799821,-104
2882.801237,-219
2882.801979,-282
2882.802746,-212
2882.803735,-53
2882.804737,70
2882.805758,127
2882.806732,158
2882.80771,162
2882.808724,161
2882.809683,109
2882.81068,30
2882.811713,-26
2882.812669,-43
2882.81369,-33
2882.814682,-37
2882.815668,-47
2882.816738,-34
2882.817663,5
2882.818702,61
2882.819622,90
2882.820636,60
2882.821617,7
2882.822613,-8
2882.823607,31
2882.824608,80
2882.825607,118
2882.82658,141
2882.827575,135
2882.828703,91
2882.829574,3
2882.830568,-63
2882.831586,-68
2882.832561,-30
2882.833535,-16
2882.834533,-22
2882.835535,1
2882.836512,39
2882.837495,77
2882.838476,74
2882.839483,53
2882.840468,52
2882.841489,82
2882.842481,106
2882.843479,86
2882.8445,26
2882.845476,-33
2882.846466,-70
2882.84748,-66
2882.848432,-7
2882.849425,21
2882.850507,-8
2882.851428,-34
2882.852431,-9
2882.853411,41
2882.854405,42
2882.855404,-21
2882.856382,-71
2882.857377,-68
2882.858383,-23
2882.859359,17
2882.860374,62
2882.861386,121
2882.862381,165
2882.863385,123
2882.864353,9
2882.865336,-114
2882.866321,-208
2882.867342,-214
2882.868326,-139
2882.869298,-40
2882.870299,-4
2882.871283,22
2882.872272,45
2882.873289,47
2882.874279,61
2882.875254,90
2882.876258,120
2882.877243,134
2882.878263,130
2882.879245,71
2882.880242,16
2882.881218,-10
2882.882222,-33
2882.883229,-96
2882.88423,-128
2882.885212,-94
2882.88622,-24
2882.887199,47
2882.888171,85
2882.889162,71
2882.890151,27
2882.891149,42
2882.892127,142
2882.893128,237
2882.894136,225
2882.895138,104
2882.896151,-32
2882.89712,-103
2882.898126,-127
2882.899113,-144
2882.900118,-125
2882.901094,-101
2882.902075,-66
2882.903065,-48
2882.904079,-54
2882.905053,-28
2882.906057,10
2882.907038,30
2882.908038,40
2882.909024,82
2882.910036,97
2882.911069,42
2882.912119,-26
2882.913026,-88
2882.914006,-113
2882.914976,-112
2882.915966,-110
2882.916978,-133
2882.91798,-149
2882.918974,-181
2882.919994,-231
2882.920984,-234
2882.921958,-154
2882.922946,-53
2882.923949,-10
2882.924939,9
2882.925921,25
2882.926918,34
2882.927893,28
2882.9289,7
2882.929918,-31
2882.930912,-75
2882.931902,-98
2882.932883,-113
2882.933931,-132
2882.934887,-111
2882.935877,-42
2882.936851,34
2882.937842,83
2882.938824,80
2882.939837,29
2882.940835,-28
2882.941817,-45
2882.942943,-60
2882.943807,-86
2882.944792,-133
2882.945814,-171
2882.946808,-163
2882.947773,-106
2882.948772,-91
2882.949763,-117
2882.950753,-162
2882.951774,-198
2882.952743,-195
2882.953723,-143
2882.954736,-99
2882.955755,-97
2882.956718,-75
2882.957729,-30
2882.958708,-19
2882.959701,-31
2882.960708,-18
2882.961723,2
2882.962672,-34
2882.96366,-92
2882.964678,-114
2882.965641,-102
2882.966661,-99
2882.967689,-112
2882.968686,-166
2882.969628,-189
2882.970615,-169
2882.971613,-121
2882.972599,-30
2882.973589,57
2882.974593,41
2882.975576,12
2882.976584,16
2882.977576,-5
2882.978558,-22
2882.979572,-53
2882.980584,-95
2882.981544,-109
2882.982546,-121
2882.983596,-93
2882.984556,-32
2882.985535,8
2882.986536,12
2882.987507,-17
2882.988513,-25
2882.989498,9
2882.990608,25
2882.991542,5
2882.992553,-39
2882.993475,-68
2882.994494,-40
2882.995455,-45
2882.99646,-81
2882.997439,-102
2882.998453,-104
2882.999462,-123
2883.000425,-162
2883.001437,-187
2883.002381,-175
2883.003426,-138
2883.00442,-82
2883.005387,-8
2883.006382,16
2883.007392,23
2883.008375,44
2883.009365,57
2883.010369,53
2883.011341,-16
2883.012355,-97
2883.013346,-148
2883.014362,-143
2883.015345,-125
2883.016311,-139
2883.017295,-119
2883.018318,-55
2883.019302,5
2883.020261,4
2883.021314,-40
2883.022334,-67
2883.023263,-31
2883.024259,33
2883.025248,85
2883.026257,93
2883.027244,37
2883.02821,-50
2883.029234,-125
2883.030207,-146
2883.031231,-131
2883.03224,-118
2883.033216,-164
2883.034204,-189
2883.035202,-153
2883.036192,-138
2883.037199,-164
2883.038135,-179
2883.039168,-128
2883.040178,-44
2883.041156,-17
2883.042147,-59
2883.043139,-88
2883.04413,-51
2883.045124,-28
2883.046092,-87
2883.047094,-126
2883.048092,-129
2883.049097,-127
2883.050101,-132
2883.051179,-115
2883.052084,-58
2883.053085,27
2883.054068,96
2883.055068,110
2883.056062,53
2883.057041,-48
2883.058011,-79
2883.059049,-65
2883.06005,-62
2883.06106,-62
2883.062008,-55
2883.063013,-35
2883.064016,-43
2883.06498,-64
2883.066006,-81
2883.066957,-105
2883.068043,-130
2883.068985,-222
2883.070072,-294
2883.070953,-232
2883.071942,-118
2883.072945,-45
2883.073953,-37
2883.074937,-23
2883.075912,-1
2883.076901,12
2883.077888,35
2883.078904,3
2883.079898,-70
2883.080944,-98
2883.081894,-121
2883.082875,-167
2883.083876,-205
2883.08485,-185
2883.085875,-135
2883.086888,-103
2883.087804,-47
2883.088854,20
2883.089826,73
2883.090814,108
2883.091809,111
2883.092801,114
2883.093798,107
2883.094789,103
2883.095813,92
2883.096812,59
2883.09787,2
2883.098801,-88
2883.099776,-122
2883.100754,-104
2883.101787,-57
2883.102766,-16
2883.104197,38
2883.105907,84
2883.105945,116
2883.106693,127
2883.107705,99
2883.108704,42
2883.109721,16
2883.110689,-34
2883.111685,-113
2883.112681,-173
2883.113681,-210
2883.114667,-226
2883.115674,-204
2883.116641,-157
2883.117626,-122
2883.11865,-65
2883.119625,-18
2883.120635,14
2883.121618,46
2883.122607,51
2883.123603,66
2883.124584,100
2883.125588,113
2883.126579,66
2883.12757,-22
2883.128584,-90
2883.129562,-135
2883.130547,-170
2883.131585,-180
2883.132549,-187
2883.133549,-182
2883.134532,-94
2883.135544,-5
2883.136524,37
2883.137485,38
2883.138493,41
2883.139492,72
2883.140521,52
2883.141504,-30
2883.142505,-124
2883.143482,-206
2883.144497,-268
2883.145495,-287
2883.146466,-283
2883.14751,-268
2883.148441,-231
2883.149504,-191
2883.15045,-142
2883.151413,-110
2883.152403,-83
2883.153416,-70
2883.154401,-73
2883.155399,-60
2883.156382,-11
2883.157367,48
2883.158369,54
2883.15935,6
2883.160344,-61
2883.161373,-80
2883.162368,-93
2883.163349,-112
2883.164414,-143
2883.165331,-203
2883.166332,-292
2883.167327,-341
2883.168306,-286
2883.169348,-137
2883.170315,-27
2883.171302,9
2883.172285,23
2883.17327,40
2883.17428,26
2883.175302,-40
2883.176254,-109
2883.177242,-130
2883.178246,-97
2883.179242,-52
2883.180235,-11
2883.181207,9
2883.18223,-15
2883.183327,-44
2883.184215,-68
2883.185204,-79
2883.186191,-61
2883.187165,-19
2883.188186,-24
2883.189141,-42
2883.190223,7
2883.191151,97
2883.192161,138
2883.193135,148
2883.19414,151
2883.195126,118
2883.196116,66
2883.197103,26
2883.19807,-24
2883.1991,-38
2883.200104,-23
2883.201079,-29
2883.202088,-24
2883.20306,-32
2883.204062,-35
2883.205085,27
2883.206055,134
2883.207029,209
2883.208031,235
2883.209054,276
2883.210035,325
2883.21105,375
2883.212075,427
2883.213012,428
2883.214105,378
2883.215029,389
2883.215997,485
2883.216974,592
2883.217999,691
2883.218954,773
2883.21995,824
2883.220958,852
2883.221955,904
2883.222943,960
2883.223938,939
2883.224927,869
2883.225923,761
2883.226925,628
2883.227921,464
2883.228892,311
2883.229906,217
2883.230899,126
2883.231874,8
2883.232884,-78
2883.233947,-137
2883.234864,-199
2883.23586,-239
2883.236856,-245
2883.23785,-213
2883.238818,-221
2883.23982,-298
2883.240818,-377
2883.241809,-432
2883.242834,-433
2883.243822,-365
2883.244983,-253
2883.245789,-116
2883.246781,-72
2883.247804,-145
2883.248765,-186
2883.249779,-179
2883.250757,-212
2883.251742,-243
2883.252735,-229
2883.253734,-167
2883.254736,-86
2883.25573,-30
2883.256729,24
2883.257707,89
2883.25869,156
2883.259683,182
2883.260669,109
2883.261669,21
2883.262677,-48
2883.263654,-95
2883.264663,-92
2883.26564,-83
2883.266653,-100
2883.267653,-115
2883.26865,-89
2883.26961,-48
2883.270624,-29
2883.27161,-13
2883.272602,20
2883.273622,54
2883.274585,35
2883.275745,-8
2883.276607,-14
2883.277565,-19
2883.278584,-25
2883.279573,-33
2883.280552,-78
2883.281546,-146
2883.282555,-167
2883.283548,-167
2883.284539,-143
2883.285525,-109
2883.286531,-101
2883.287502,-66
2883.288506,-35
2883.289539,-9
2883.290476,76
2883.29152,110
2883.29248,48
2883.293445,-4
2883.294463,1
2883.295435,-7
2883.2964,-66
2883.297516,-119
2883.298431,-100
2883.29943,-86
2883.300427,-106
2883.301412,-92
2883.302392,-39
2883.30338,37
2883.304367,118
2883.305358,179
2883.306343,182
2883.307362,146
2883.308374,106
2883.309345,61
2883.310429,37
2883.31135,67
2883.312334,82
2883.313317,0
2883.314338,-111
2883.315308,-155
2883.316291,-142
2883.317299,-105
2883.318297,-70
2883.319274,-33
2883.320279,5
2883.321389,46
2883.322261,104
2883.323244,183
2883.324255,195
2883.32523,121
2883.326199,45
2883.327218,35
2883.328228,34
2883.329237,-32
2883.330215,-85
2883.331195,-91
2883.332213,-58
2883.33324,-36
2883.334186,-14
2883.335181,8
2883.336183,-3
2883.337176,-45
2883.338179,-78
2883.339155,-51
2883.34014,31
2883.341122,74
2883.342119,50
2883.343155,46
2883.344115,86
2883.345109,89
2883.346093,24
2883.347104,-40
2883.348078,-60
2883.349068,-96
2883.35009,-137
2883.351059,-132
2883.352065,-80
2883.353057,-23
2883.354051,26
2883.35506,66
2883.356018,90
2883.357024,106
2883.358038,137
2883.359,164
2883.360016,128
2883.361028,79
2883.362003,55
2883.362987,36
2883.364,35
2883.364966,14
2883.365958,-47
2883.366978,-93
2883.367953,-106
2883.368932,-102
2883.369932,-67
2883.370962,-37
2883.371972,-49
2883.37294,-13
2883.37392,50
2883.374901,106
2883.375922,134
2883.376902,152
2883.377892,155
2883.378863,108
2883.379842,20
2883.380896,-42
2883.381887,-69
2883.382871,-80
2883.383947,-95
2883.384835,-76
2883.385828,-32
2883.386825,15
2883.387809,84
2883.388811,138
2883.389814,169
2883.390782,175
2883.39182,179
2883.392791,199
2883.393786,210
2883.394779,177
2883.395801,118
2883.396774,92
2883.397772,52
2883.398763,-1
2883.399788,-41
2883.400742,-72
2883.401725,-99
2883.402748,-142
2883.40385,-139
2883.404706,-20
2883.40573,124
2883.406689,172
2883.407685,146
2883.408671,41
2883.409642,-27
2883.410681,0
2883.411664,37
2883.412642,34
2883.413624,3
2883.41463,-31
2883.415664,-46
2883.416625,-46
2883.417607,-4
2883.418611,72
2883.419611,119
2883.420587,131
2883.421587,124
2883.422575,135
2883.423592,182
2883.424572,208
2883.425557,219
2883.426559,230
2883.427585,204
2883.428552,77
2883.429545,-59
2883.430563,-144
2883.431542,-160
2883.432556,-123
2883.433519,-78
2883.434536,-26
2883.435494,-9
2883.436499,-12
2883.437499,7
2883.43847,40
2883.439478,69
2883.440467,99
2883.441465,154
2883.442496,222
2883.44344,269
2883.444454,233
2883.445421,108
2883.446433,-12
2883.447529,-69
2883.448394,-95
2883.449398,-106
2883.450418,-102
2883.451439,-67
2883.452447,9
2883.453386,90
2883.454384,119
2883.455381,100
2883.456411,84
2883.457348,105
2883.458358,146
2883.45938,152
2883.460338,97
2883.461373,-10
2883.462327,-85
2883.463334,-132
2883.464299,-166
2883.465317,-153
2883.466473,-140
2883.467338,-167
2883.468335,-173
2883.469333,-139
2883.470282,-114
2883.471268,-98
2883.472299,-71
2883.473255,-40
2883.474217,6
2883.475214,54
2883.47624,79
2883.477272,72
2883.478245,42
2883.479282,-3
2883.480196,-37
2883.481203,-88
2883.482166,-138
2883.483171,-189
2883.484134,-240
2883.485144,-269
2883.486147,-229
2883.487155,-138
2883.48816,-87
2883.489163,-61
2883.490138,-18
2883.491115,35
2883.49212,57
2883.493182,61
2883.494107,-2
2883.495084,-113
2883.496074,-183
2883.497109,-218
2883.498094,-257
2883.499072,-267
2883.500065,-244
2883.501066,-210
2883.502034,-174
2883.503035,-135
2883.504027,-124
2883.505029,-130
2883.506027,-83
2883.506996,4
2883.508002,85
2883.508992,109
2883.510013,98
2883.511027,54
2883.511977,-13
2883.512979,-61
2883.513982,-107
2883.514971,-164
2883.515922,-188
2883.516931,-159
2883.517955,-83
2883.518921,-65
2883.519925,-125
2883.520968,-184
2883.521905,-193
2883.522906,-136
2883.523867,-20
2883.524898,120
2883.525908,175
2883.526879,126
2883.527912,21
2883.528975,-85
2883.529881,-146
2883.53087,-181
2883.531855,-195
2883.532839,-203
2883.533861,-223
2883.534841,-259
2883.535867,-235
2883.536822,-143
2883.537828,-51
2883.538814,-25
2883.539814,-4
2883.540807,58
2883.541789,104
2883.542767,92
2883.543775,60
2883.544763,36
2883.545779,-13
2883.546753,-76
2883.547756,-112
2883.548739,-99
2883.549741,-90
2883.550743,-134
2883.551735,-190
2883.552739,-224
2883.553701,-233
2883.554693,-203
2883.555686,-121
2883.556681,-51
2883.557697,-33
2883.558663,-29
2883.559678,-34
2883.560655,-37
2883.561636,-37
2883.562633,-43
2883.563677,-85
2883.564632,-126
2883.565655,-163
2883.566699,-191
2883.567607,-189
2883.568639,-208
2883.569606,-217
2883.570581,-159
2883.571568,-82
2883.572561,-20
2883.5736,54
2883.574558,130
2883.575534,112
2883.576534,4
2883.577568,-106
2883.578528,-105
2883.579522,-56
2883.580532,-80
2883.581508,-125
2883.582472,-144
2883.583535,-146
2883.584516,-135
2883.585472,-77
2883.586473,-33
2883.587501,-25
2883.588502,-41
2883.589431,-64
2883.590447,-71
2883.591433,-52
2883.592429,18
2883.593456,88
2883.594436,106
2883.595466,57
2883.596405,-33
2883.597381,-156
2883.598383,-293
2883.59939,-401
2883.600428,-438
2883.601357,-357
2883.602375,-240
2883.603397,-189
2883.604349,-143
2883.605404,-55
2883.606333,44
2883.607361,100
2883.608311,133
2883.609303,171
2883.610316,169
2883.611306,95
2883.612312,-4
2883.613302,-92
2883.614303,-121
2883.615278,-58
2883.616274,-7
2883.617287,-7
2883.618249,-50
2883.619241,-85
2883.620235,-84
2883.621291,-57
2883.622222,-17
2883.623221,38
2883.624224,61
2883.625202,44
2883.626201,-1
2883.627194,-34
2883.628174,-59
2883.629219,-110
2883.630174,-175
2883.631178,-193
2883.632233,-193
2883.63325,-230
2883.634268,-242
2883.635286,-153
2883.636303,-23
2883.637321,-3
2883.638338,-30
2883.639125,-37
2883.640123,12
2883.641103,50
2883.642107,49
2883.643117,57
2883.644088,87
2883.645078,71
2883.646056,0
2883.647056,-82
2883.648035,-115
2883.649069,-91
2883.650063,-58
2883.651054,-41
2883.652057,-24
2883.653002,-36
2883.654035,-34
2883.655038,40
2883.656002,141
2883.656973,182
2883.657994,159
2883.658996,128
2883.659978,103
2883.661175,24
2883.66197,-78
2883.662928,-117
2883.663941,-105
2883.664934,-89
2883.66594,-83
2883.666934,-95
2883.667999,-96
2883.668926,-106
2883.669926,-66
2883.670906,-4
2883.671902,43
2883.672941,79
2883.673886,115
2883.674893,167
2883.675864,178
2883.676889,146
2883.67787,77
2883.678893,-45
2883.679852,-174
2883.68084,-228
2883.681857,-252
2883.682826,-252
2883.683812,-234
2883.684794,-206
2883.685789,-153
2883.686805,-63
2883.687795,53
2883.688777,138
2883.689782,155
2883.690794,149
2883.691766,152
2883.69275,138
2883.693755,78
2883.694742,17
2883.695824,-66
2883.696744,-140
2883.697738,-170
2883.698735,-172
2883.69971,-180
2883.700711,-203
2883.701773,-226
2883.702685,-220
2883.703679,-178
2883.704684,-119
2883.705701,-94
2883.706658,-41
2883.707671,50
2883.708631,149
2883.709629,205
2883.710642,165
2883.711651,56
2883.712626,-59
2883.713638,-141
2883.714619,-174
2883.715612,-152
2883.716599,-153
2883.717655,-159
2883.718613,-103
2883.719599,-34
2883.720602,-16
2883.721595,-24
2883.722582,-9
2883.723555,32
2883.724545,99
2883.725565,163
2883.726528,156
2883.727587,75
2883.728755,-22
2883.729595,-78
2883.730506,-121
2883.731522,-153
2883.732541,-146
2883.733503,-99
2883.73452,-41
2883.735566,-30
2883.736469,-75
2883.737489,-142
2883.738493,-161
2883.739453,-99
2883.740563,13
2883.741464,92
2883.742439,79
2883.743423,47
2883.744483,37
2883.745474,16
2883.747512,-27
2883.747588,-91
2883.749768,-117
2883.749843,-91
2883.75039,-80
2883.751388,-76
2883.752373,-65
2883.753376,-36
2883.754362,19
2883.755355,47
2883.756348,65
2883.757329,57
2883.758321,81
2883.759326,143
2883.760315,166
2883.761293,160
2883.762322,153
2883.76328,121
2883.764326,66
2883.765277,42
2883.766305,92
2883.767283,139
2883.768296,208
2883.769249,352
2883.770253,508
2883.771279,587
2883.772229,623
2883.773229,661
2883.774212,741
2883.775244,838
2883.776231,889
2883.777226,891
2883.778193,817
2883.779245,702
2883.780192,569
2883.781159,434
2883.782266,344
2883.783172,233
2883.78418,91
2883.785183,12
2883.786153,1
2883.787147,42
2883.788135,72
2883.789142,54
2883.790084,29
2883.791106,25
2883.792111,-20
2883.793113,-87
2883.79413,-178
2883.795086,-274
2883.796082,-372
2883.797089,-450
2883.798056,-476
2883.79905,-457
2883.80007,-452
2883.80114,-456
2883.802031,-429
2883.803054,-337
2883.804058,-243
2883.805035,-204
2883.806038,-184
2883.807015,-142
2883.808074,-122
2883.809568,-118
2883.810812,-122
2883.811017,-138
2883.811943,-134
2883.81297,-145
2883.814014,-170
2883.814954,-190
2883.815978,-210
2883.816959,-239
2883.817953,-220
2883.818956,-143
2883.820108,-71
2883.820931,-71
2883.821879,-53
2883.822897,-16
2883.824046,21
2883.824929,80
2883.825915,121
2883.826892,123
2883.827875,51
2883.828854,-55
2883.829868,-112
2883.831032,-113
2883.831859,-110
2883.83286,-121
2883.833856,-138
2883.834856,-148
2883.835845,-111
2883.836827,-41
2883.83783,17
2883.838787,7
2883.839794,22
2883.840801,77
2883.841788,139
2883.842786,157
2883.84379,116
2883.844731,26
2883.845761,-91
2883.846743,-152
2883.847719,-156
2883.848736,-130
2883.849726,-120
2883.850748,-121
2883.851724,-100
2883.852703,-42
2883.853686,-19
2883.854676,-6
2883.855698,22
2883.856671,77
2883.857662,112
2883.858666,111
2883.859634,108
2883.86064,98
2883.861633,52
2883.862618,-13
2883.86363,-54
2883.864641,-50
2883.865619,-13
2883.86661,-4
2883.867649,-50
2883.868584,-112
2883.869586,-107
2883.870584,-47
2883.871574,33
2883.872557,100
2883.873562,111
2883.874552,58
2883.875544,51
2883.876563,114
2883.877567,162
2883.878551,147
2883.879513,56
2883.880518,-54
2883.881508,-135
2883.882495,-169
2883.883486,-185
2883.884504,-196
2883.885499,-190
2883.886488,-160
2883.887475,-96
2883.888478,-28
2883.889466,44
2883.890434,133
2883.89143,191
2883.892428,187
2883.893442,159
2883.894435,143
2883.895399,84
2883.89642,-22
2883.897479,-95
2883.898403,-106
2883.899411,-114
2883.900402,-110
2883.901364,-59
2883.90234,-2
2883.903362,28
2883.904353,65
2883.905355,123
2883.906337,195
2883.907339,228
2883.908333,210
2883.909336,171
2883.910321,126
2883.911314,66
2883.912302,14
2883.913314,-60
2883.914333,-138
2883.915273,-192
2883.916279,-199
2883.917277,-135
2883.918276,-56
2883.919309,-22
2883.92066,9
2883.922445,83
2883.922487,148
2883.923237,201
2883.924233,218
2883.925234,214
2883.926223,171
2883.927202,73
2883.9282,20
2883.929194,42
2883.930206,54
2883.931195,29
2883.932187,-20
2883.933185,-80
2883.934321,-104
2883.935191,-70
2883.936141,11
2883.937133,66
2883.938153,86
2883.939136,123
2883.940121,167
2883.941114,202
2883.942106,226
2883.943102,227
2883.944154,173
2883.945107,93
2883.946089,52
2883.947062,12
2883.948072,-66
2883.94905,-95
2883.950058,-65
2883.951058,-35
2883.952065,4
2883.953041,51
2883.954039,95
2883.955032,97
2883.956004,113
2883.957005,173
2883.958,216
2883.958989,243
2883.959993,262
2883.960985,236
2883.961993,169
2883.962983,123
2883.963981,125
2883.964967,109
2883.96596,58
2883.966993,-7
2883.967906,-62
2883.968969,-90
2883.969933,-28
2883.970926,73
2883.971919,131
2883.972896,151
2883.973892,155
2883.97489,175
2883.975893,206
2883.976908,210
2883.977884,200
2883.978849,210
2883.979837,191
2883.980907,85
2883.981859,-69
2883.982875,-146
2883.983918,-162
2883.984843,-148
2883.985857,-105
2883.986821,-28
2883.987816,49
2883.988817,86
2883.989818,120
2883.990816,151
2883.991787,168
2883.992802,147
2883.99381,100
2883.994762,60
2883.995759,12
2883.996755,-1
2883.997739,-11
2883.999562,-66
2883.999878,-142
2884.003293,-160
2884.003314,-123
2884.003335,-37
2884.003708,43
2884.004694,101
2884.005692,151
2884.006695,193
2884.007677,245
2884.008664,290
2884.00971,305
2884.010687,267
2884.011658,187
2884.012634,84
2884.013638,10
2884.014707,-43
2884.015626,-86
2884.016627,-101
2884.017635,-88
2884.018625,-68
2884.019601,-47
2884.020598,-31
2884.021588,-30
2884.022594,-33
2884.023584,-3
2884.024586,70
2884.025581,159
2884.026572,216
2884.02759,220
2884.028562,168
2884.029555,83
2884.03052,45
2884.031528,5
2884.032549,-87
2884.033492,-160
2884.034514,-148
2884.035505,-62
2884.036494,-7
2884.037493,-42
2884.038474,-124
2884.039468,-122
2884.040487,-35
2884.041462,46
2884.042483,82
2884.043451,109
2884.044454,104
2884.04546,68
2884.046423,29
2884.047443,-39
2884.048435,-86
2884.049484,-114
2884.050412,-95
2884.051438,-68
2884.052424,-79
2884.053415,-60
2884.054401,18
2884.055415,116
2884.056383,171
2884.057388,156
2884.058395,138
2884.059355,109
2884.060346,46
2884.061353,-5
2884.062366,-11
2884.06334,-18
2884.064345,-46
2884.065309,-85
2884.066335,-122
2884.067291,-166
2884.068298,-195
2884.06929,-201
2884.070276,-164
2884.071268,-122
2884.072263,-98
2884.073255,-87
2884.074263,-81
2884.075245,-79
2884.076232,-70
2884.077232,-66
2884.078231,-44
2884.079214,-54
2884.080221,-105
2884.081226,-140
2884.082206,-158
2884.08318,-178
2884.084209,-215
2884.085198,-213
2884.086189,-191
2884.087159,-229
2884.088173,-232
2884.089155,-131
2884.09013,21
2884.091143,167
2884.09211,223
2884.093172,183
2884.094168,95
2884.095109,35
2884.096119,-26
2884.097095,-108
2884.098196,-167
2884.099081,-179
2884.100112,-185
2884.101082,-219
2884.102079,-234
2884.103101,-203
2884.104062,-105
2884.105077,2
2884.106029,56
2884.107039,98
2884.108031,123
2884.109067,102
2884.110082,43
2884.111703,-15
2884.113328,-50
2884.113468,-79
2884.114086,-103
2884.114975,-110
2884.115986,-95
2884.116983,-80
2884.118039,-92
2884.118981,-115
2884.119968,-92
2884.120967,-31
2884.121936,-7
2884.122934,22
2884.123933,90
2884.124908,162
2884.125937,196
2884.126903,181
2884.127854,138
2884.12895,61
2884.129911,-27
2884.130903,-61
2884.131878,-65
2884.132918,-96
2884.133882,-149
2884.134876,-138
2884.135836,-58
2884.136823,-21
2884.137848,-81
2884.138827,-101
2884.139844,-10
2884.140822,129
2884.141837,186
2884.142814,163
2884.143812,154
2884.144771,150
2884.145793,81
2884.146762,-63
2884.147779,-162
2884.148763,-199
2884.14978,-231
2884.150766,-232
2884.151727,-232
2884.152749,-230
2884.153727,-196
2884.154736,-122
2884.15573,-32
2884.156691,33
2884.157689,81
2884.158697,150
2884.159693,209
2884.160702,197
2884.161668,127
2884.162662,36
2884.16366,-25
2884.164638,-88
2884.165662,-167
2884.166623,-217
2884.167633,-207
2884.168648,-140
2884.169605,-102
2884.170601,-82
2884.171582,-36
2884.172596,16
2884.173589,30
2884.1746,19
2884.175591,29
2884.176651,36
2884.17759,20
2884.178566,-20
2884.179559,-89
2884.180545,-156
2884.181532,-191
2884.182547,-217
2884.183528,-226
2884.184569,-197
2884.185507,-132
2884.186507,-41
2884.187505,64
2884.188611,93
2884.189498,79
2884.190487,90
2884.191469,113
2884.192464,106
2884.193469,77
2884.194471,62
2884.195443,50
2884.196435,4
2884.197483,-50
2884.198427,-87
2884.199428,-104
2884.200431,-125
2884.201428,-127
2884.2024,-74
2884.203385,-2
2884.204392,47
2884.205395,117
2884.20639,214
2884.207372,280
2884.208426,272
2884.209372,238
2884.21036,242
2884.211366,219
2884.212354,132
2884.21332,19
2884.214375,-81
2884.215345,-197
2884.21632,-294
2884.21731,-330
2884.218313,-339
2884.219305,-289
2884.220304,-171
2884.221289,-45
2884.22228,43
2884.223283,83
2884.224239,102
2884.225261,142
2884.226258,156
2884.227267,149
2884.228232,109
2884.229237,47
2884.230235,-42
2884.23124,-143
2884.232214,-207
2884.233211,-232
2884.234229,-215
2884.235221,-172
2884.236218,-117
2884.237197,-37
2884.238163,9
2884.23915,24
2884.240143,45
2884.241141,78
2884.242132,106
2884.243113,91
2884.244151,69
2884.245136,57
2884.246242,10
2884.247117,-56
2884.24817,-130
2884.24912,-236
2884.250144,-344
2884.251077,-348
2884.252107,-298
2884.253041,-231
2884.254053,-123
2884.255054,-70
2884.256022,-95
2884.257015,-122
2884.25803,-74
2884.259016,20
2884.259994,79
2884.261011,65
2884.262011,-4
2884.263001,-54
2884.264003,-85
2884.264979,-117
2884.265975,-154
2884.266947,-147
2884.267989,-122
2884.268951,-150
2884.26994,-194
2884.270947,-204
2884.271954,-172
2884.272916,-111
2884.273918,-35
2884.274927,11
2884.275902,0
2884.276882,-40
2884.277904,-57
2884.278908,-22
2884.279892,-2
2884.280898,-46
2884.28187,-109
2884.282875,-146
2884.283975,-160
2884.284914,-134
2884.285855,-89
2884.286825,-54
2884.287841,11
2884.288827,86
2884.289842,127
2884.290815,96
2884.29182,35
2884.292791,15
2884.293793,10
2884.294785,-33
2884.295773,-118
2884.296765,-150
2884.297787,-106
2884.298756,-11
2884.299779,58
2884.300757,65
2884.301759,6
2884.302747,-88
2884.303719,-128
2884.30473,-93
2884.305703,-28
2884.306703,43
2884.307706,133
2884.308691,252
2884.30967,350
2884.310688,423
2884.311764,459
2884.312665,421
2884.313653,375
2884.314736,388
2884.315659,409
2884.316647,432
2884.317648,465
2884.318635,513
2884.319637,580
2884.320616,636
2884.3216,705
2884.322589,716
2884.3236,661
2884.324584,596
2884.325587,553
2884.326567,531
2884.327584,491
2884.328574,416
2884.329548,284
2884.330578,158
2884.331586,81
2884.332547,-13
2884.333538,-97
2884.334529,-144
2884.335525,-164
2884.336536,-206
2884.337505,-276
2884.338508,-292
2884.339504,-248
2884.340493,-203
2884.341481,-181
2884.342478,-204
2884.34346,-296
2884.344452,-370
2884.345445,-410
2884.346456,-423
2884.347492,-421
2884.348463,-407
2884.349429,-406
2884.350429,-379
2884.351437,-331
2884.352413,-290
2884.353399,-221
2884.354379,-135
2884.355395,-88
2884.356387,-45
2884.357386,13
2884.358385,48
2884.359354,40
2884.360361,17
2884.361379,-32
2884.362339,-97
2884.363336,-173
2884.364367,-214
2884.365339,-194
2884.366304,-185
2884.367318,-201
2884.36845,-214
2884.369323,-185
2884.370305,-154
2884.371281,-140
2884.372324,-121
2884.373275,-93
2884.374272,-51
2884.375256,-12
2884.376237,5
2884.37728,-24
2884.378248,-70
2884.379207,-80
2884.380195,-122
2884.381255,-191
2884.382252,-230
2884.383229,-225
2884.384204,-159
2884.385207,-93
2884.386208,-64
2884.387183,-82
2884.388222,-59
2884.389214,21
2884.390181,101
2884.391162,158
2884.392157,161
2884.393145,131
2884.394176,107
2884.395127,78
2884.396144,4
2884.397175,-61
2884.398079,-102
2884.399149,-151
2884.400146,-193
2884.40108,-166
2884.402131,-93
2884.403074,-34
2884.404069,-15
2884.405068,41
2884.406106,107
2884.407046,145
2884.408001,120
2884.409054,73
2884.410049,46
2884.411054,27
2884.412074,10
2884.413002,-11
2884.414082,-69
2884.41502,-171
2884.415979,-244
2884.416991,-225
2884.417987,-105
2884.418981,22
2884.419958,79
2884.42099,90
2884.421982,60
2884.422945,2
2884.423937,-5
2884.424973,75
2884.425915,135
2884.4269,99
2884.427885,-18
2884.428898,-127
2884.429912,-164
2884.430901,-143
2884.431889,-107
2884.432856,-100
2884.433872,-142
2884.434847,-176
2884.435866,-143
2884.436902,-69
2884.437842,-23
2884.438812,30
2884.439815,102
2884.440806,164
2884.441875,185
2884.442802,117
2884.4438,37
2884.444793,19
2884.445799,28
2884.446777,12
2884.447804,-23
2884.448762,-53
2884.449811,-90
2884.450766,-100
2884.451739,-111
2884.452742,-120
2884.453739,-82
2884.454746,-26
2884.455727,35
2884.456729,94
2884.457699,115
2884.458696,157
2884.459695,201
2884.460712,201
2884.461667,188
2884.462679,138
2884.46368,70
2884.464667,-4
2884.465676,-98
2884.466635,-156
2884.467647,-184
2884.468643,-163
2884.469616,-92
2884.470622,-7
2884.471651,44
2884.472628,96
2884.473601,156
2884.474594,181
2884.475585,184
2884.476626,213
2884.477579,249
2884.478627,179
2884.479581,89
2884.480571,30
2884.481564,-17
2884.482586,-40
2884.483573,-44
2884.484562,-61
2884.485523,-103
2884.48659,-110
2884.487528,-69
2884.488506,-24
2884.489493,26
2884.490486,60
2884.491466,115
2884.492468,183
2884.493471,230
2884.494476,199
2884.495511,113
2884.496462,6
2884.497519,-64
2884.498458,-60
2884.499495,-45
2884.500409,-48
2884.501453,-86
2884.502433,-95
2884.50422,-44
2884.504398,15
2884.505418,78
2884.506411,156
2884.507403,257
2884.50837,338
2884.509386,378
2884.510386,372
2884.511365,326
2884.512365,258
2884.513371,190
2884.514364,99
2884.51534,25
2884.51633,-45
2884.517325,-138
2884.518347,-212
2884.519299,-215
2884.520311,-106
2884.521314,17
2884.522299,120
2884.523283,201
2884.524277,222
2884.52526,195
2884.526241,144
2884.52728,113
2884.528275,147
2884.529231,166
2884.53023,99
2884.531296,14
2884.532237,-94
2884.533216,-184
2884.534245,-179
2884.535226,-85
2884.53621,5
2884.537188,75
2884.538199,111
