timestamp,LP FIR Sample,New ECG Sample,R-R Interval,bpm
2525.30248,-46,38,1157,52
2525.303465,-48,7,1157,52
2525.304448,-48,-14,1157,52
2525.305439,-47,-55,1157,52
2525.306423,-47,-84,1157,52
2525.307422,-48,-104,1157,52
2525.308405,-47,-109,1157,52
2525.309416,-46,-116,1157,52
2525.310398,-43,-117,1157,52
2525.311397,-38,-63,1157,52
2525.312403,-35,-15,1157,52
2525.313387,-36,-21,1157,52
2525.314371,-39,-26,1157,52
2525.315379,-39,-12,1157,52
2525.316359,-39,-15,1157,52
2525.317384,-39,-15,1157,52
2525.318386,-38,-27,1157,52
2525.319358,-38,-48,1157,52
2525.320356,-40,-58,1157,52
2525.321327,-45,-66,1157,52
2525.322322,-51,-88,1157,52
2525.323325,-58,-121,1157,52
2525.324312,-65,-150,1157,52
2525.325315,-67,-112,1157,52
2525.326327,-65,-39,1157,52
2525.327287,-60,6,1157,52
2525.328291,-54,5,1157,52
2525.329263,-48,-7,1157,52
2525.33026,-44,-35,1157,52
2525.331262,-43,-44,1157,52
2525.332268,-42,4,1157,52
2525.333243,-41,1,1157,52
2525.334247,-42,-44,1157,52
2525.335236,-45,-63,1157,52
2525.33625,-47,-50,1157,52
2525.337245,-47,-31,1157,52
2525.338228,-48,-33,1157,52
2525.3392,-48,-56,1157,52
2525.340194,-49,-76,1157,52
2525.341213,-50,-90,1157,52
2525.342181,-50,-78,1157,52
2525.343168,-47,-59,1157,52
2525.344185,-42,-49,1157,52
2525.345164,-38,-33,1157,52
2525.346153,-35,4,1157,52
2525.347177,-36,3,1157,52
2525.348137,-38,-42,1157,52
2525.349142,-42,-79,1157,52
2525.350139,-43,-57,1157,52
2525.351186,-39,21,1157,52
2525.352128,-37,46,1157,52
2525.353125,-36,21,1157,52
2525.354108,-34,11,1157,52
2525.355164,-30,6,1157,52
2525.356099,-29,-28,1157,52
2525.3571,-31,-67,1157,52
2525.358061,-34,-107,1157,52
2525.35921,-37,-105,1157,52
2525.360148,-37,-82,1157,52
2525.361097,-37,-78,1157,52
2525.362157,-36,-57,1157,52
2525.36322,-34,-24,1157,52
2525.364023,-30,33,1157,52
2525.365034,-24,89,1157,52
2525.366005,-20,83,1157,52
2525.36705,-18,36,1157,52
2525.368049,-16,-2,1157,52
2525.369077,-14,-32,1157,52
2525.370009,-13,-43,1157,52
2525.370997,-16,-43,1157,52
2525.371989,-22,-61,1157,52
2525.37301,-27,-96,1157,52
2525.374145,-35,-137,1157,52
2525.374961,-43,-151,1157,52
2525.375992,-48,-130,1157,52
2525.376997,-49,-83,1157,52
2525.378013,-45,-27,1157,52
2525.378954,-39,13,1157,52
2525.379989,-34,14,1157,52
2525.381006,-30,-4,1157,52
2525.381977,-28,-8,1157,52
2525.382989,-27,-1,1157,52
2525.383972,-28,2,1157,52
2525.384905,-33,-1,1157,52
2525.385872,-36,9,1157,52
2525.386865,-38,4,1157,52
2525.38792,-38,-13,1157,52
2525.388943,-39,-37,1157,52
2525.389883,-39,-50,1157,52
2525.390925,-39,-35,1157,52
2525.391858,-36,-3,1157,52
2525.392899,-32,-16,1157,52
2525.39388,-28,-54,1157,52
2525.39484,-23,-66,1157,52
2525.395958,-21,-79,1157,52
2525.396968,-21,-86,1157,52
2525.397862,-23,-69,1157,52
2525.398775,-26,-56,1157,52
2525.399767,-27,4,1157,52
2525.400816,-25,43,1157,52
2525.401803,-23,24,1157,52
2525.402793,-23,-10,1157,52
2525.403769,-25,-21,1157,52
2525.404757,-26,-31,1157,52
2525.405744,-28,-26,1157,52
2525.406751,-30,-35,1157,52
2525.407753,-32,-48,1157,52
2525.408748,-33,-74,1157,52
2525.409748,-34,-69,1157,52
2525.410734,-34,-36,1157,52
2525.411706,-35,-24,1157,52
2525.412702,-35,-15,1157,52
2525.413693,-32,8,1157,52
2525.414692,-28,12,1157,52
2525.415674,-26,-25,1157,52
2525.416692,-24,-54,1157,52
2525.417696,-23,-53,1157,52
2525.418657,-22,-21,1157,52
2525.419675,-20,26,1157,52
2525.420643,-18,96,1157,52
2525.421658,-14,94,1157,52
2525.422637,-12,29,1157,52
2525.423638,-12,-17,1157,52
2525.424625,-13,-49,1157,52
2525.425645,-15,-59,1157,52
2525.426599,-16,-52,1157,52
2525.427619,-14,-14,1157,52
2525.428595,-8,36,1157,52
2525.42964,-4,11,1157,52
2525.430605,-4,-32,1157,52
2525.431566,-5,-38,1157,52
2525.432573,-5,-16,1157,52
2525.43356,-6,-12,1157,52
2525.434629,-6,5,1157,52
2525.435574,-5,7,1157,52
2525.436547,-4,-45,1157,52
2525.437527,-3,-28,1157,52
2525.438526,0,36,1157,52
2525.43954,-1,15,1157,52
2525.44053,-7,-26,1157,52
2525.441508,-13,-32,1157,52
2525.442499,-17,-53,1157,52
2525.443501,-19,-56,1157,52
2525.444482,-17,-1,1157,52
2525.445488,-13,22,1157,52
2525.446473,-9,30,1157,52
2525.447504,-7,17,1157,52
2525.448456,-9,-7,1157,52
2525.449463,-9,14,1157,52
2525.45045,-6,30,1157,52
2525.451472,-4,8,1157,52
2525.452446,-4,-23,1157,52
2525.45344,-4,-14,1157,52
2525.454407,-6,-26,1157,52
2525.45543,-10,-71,1157,52
2525.456666,-12,-94,1157,52
2525.457409,-15,-97,1157,52
2525.458423,-21,-73,1157,52
2525.459425,-24,-40,1157,52
2525.460394,-24,-26,1157,52
2525.461406,-23,-28,1157,52
2525.462358,-23,-46,1157,52
2525.463346,-21,-21,1157,52
2525.464338,-21,7,1157,52
2525.465399,-20,34,1157,52
2525.466353,-18,68,1157,52
2525.46733,-16,75,1157,52
2525.468331,-11,74,1157,52
2525.469312,-8,78,1157,52
2525.470334,-9,24,1157,52
2525.471349,-11,-48,1157,52
2525.472317,-12,-44,1157,52
2525.473268,-13,-32,1157,52
2525.47432,-16,-72,1157,52
2525.475279,-17,-100,1157,52
2525.476278,-16,-80,1157,52
2525.477266,-15,-60,1157,52
2525.47826,-13,-45,1157,52
2525.479255,-12,-22,1157,52
2525.480248,-10,20,1157,52
2525.48123,-7,31,1157,52
2525.482227,-5,-4,1157,52
2525.483217,-4,-11,1157,52
2525.484197,-4,15,1157,52
2525.485223,-4,36,1157,52
2525.48621,-7,8,1157,52
2525.487223,-11,-4,1157,52
2525.488232,-14,9,1157,52
2525.489166,-18,-4,1157,52
2525.490231,-20,-19,1157,52
2525.491206,-16,30,1157,52
2525.492168,-10,78,1157,52
2525.493148,-6,59,1157,52
2525.494151,-3,-15,1157,52
2525.495177,-2,-76,1157,52
2525.496141,-2,-88,1157,52
2525.497132,0,-21,1157,52
2525.498124,3,28,1157,52
2525.499155,5,24,1157,52
2525.500126,4,3,1157,52
2525.501225,0,-39,1157,52
2525.502098,-1,-59,1157,52
2525.503148,-3,-52,1157,52
2525.504078,-6,-29,1157,52
2525.505087,-7,7,1157,52
2525.506058,-7,18,1157,52
2525.507046,-7,-7,1157,52
2525.508019,-7,-7,1157,52
2525.509058,-8,-15,1157,52
2525.510066,-10,-50,1157,52
2525.511029,-14,-50,1157,52
2525.512022,-19,-22,1157,52
2525.513027,-22,-18,1157,52
2525.514,-24,-40,1157,52
2525.515009,-22,-52,1157,52
2525.515988,-19,-11,1157,52
2525.516985,-16,30,1157,52
2525.517985,-15,55,1157,52
2525.518977,-13,60,1157,52
2525.519946,-11,32,1157,52
2525.520976,-10,-3,1157,52
2525.522018,-8,-28,1157,52
2525.522938,-7,-31,1157,52
2525.523949,-6,-14,1157,52
2525.524957,-6,19,1157,52
2525.525925,-3,75,1157,52
2525.526923,1,92,1157,52
2525.527935,5,70,1157,52
2525.528909,9,63,1157,52
2525.529956,16,85,1157,52
2525.530909,22,80,1157,52
2525.531893,25,34,1157,52
2525.532895,25,-7,1157,52
2525.533891,27,-12,1157,52
2525.534915,30,16,1157,52
2525.535857,34,67,1157,52
2525.536857,39,136,1157,52
2525.537871,46,178,1157,52
2525.538846,51,166,1157,52
2525.539844,54,89,1157,52
2525.540827,55,22,1157,52
2525.541871,56,-12,1157,52
2525.542833,58,14,1157,52
2525.54379,62,65,1157,52
2525.544801,66,105,1157,52
2525.5458,69,137,1157,52
2525.546804,71,117,1157,52
2525.547782,72,102,1157,52
2525.548802,73,87,1157,52
2525.549763,72,46,1157,52
2525.550772,68,5,1157,52
2525.551783,66,-6,1157,52
2525.552744,66,6,1157,52
2525.553776,67,6,1157,52
2525.554724,67,11,1157,52
2525.555714,66,55,1157,52
2525.556761,65,104,1157,52
2525.557758,63,143,1157,52
2525.558751,63,171,1157,52
2525.559707,69,198,1157,52
2525.560695,78,207,1157,52
2525.56169,89,199,1157,52
2525.562682,98,202,1157,52
2525.563679,104,185,1157,52
2525.564655,106,143,1157,52
2525.565646,104,106,1157,52
2525.566644,103,80,1157,52
2525.567693,101,75,1157,52
2525.568655,101,89,1157,52
2525.569625,103,78,1157,52
2525.57066,105,52,1157,52
2525.571646,107,39,1157,52
2525.572667,111,67,1157,52
2525.573618,114,79,1157,52
2525.574593,117,75,1157,52
2525.575614,119,80,1157,52
2525.576576,116,45,1157,52
2525.577583,109,2,1157,52
2525.578596,101,9,1157,52
2525.579566,92,32,1157,52
2525.580568,84,41,1157,52
2525.581548,77,56,1157,52
2525.582559,70,64,1157,52
2525.583573,64,75,1157,52
2525.584589,62,104,1157,52
2525.585543,64,139,1157,52
2525.58653,68,165,1157,52
2525.587589,71,128,1157,52
2525.588525,70,72,1157,52
2525.589508,70,67,1157,52
2525.590497,72,97,1157,52
2525.5915,73,71,1157,52
2525.592486,70,3,1157,52
2525.593469,65,-32,1157,52
2525.594486,60,-13,1157,52
2525.59546,57,5,1157,52
2525.596448,53,-18,1157,52
2525.597443,52,-22,1157,52
2525.598444,51,-8,1157,52
2525.599453,50,-2,1157,52
2525.600443,48,15,1157,52
2525.601472,48,52,1157,52
2525.602434,48,70,1157,52
2525.603424,47,41,1157,52
2525.604412,42,0,1157,52
2525.605449,33,-25,1157,52
2525.606451,24,-28,1157,52
2525.607375,14,-58,1157,52
2525.608397,6,-104,1157,52
2525.609373,-3,-130,1157,52
2525.610375,-14,-107,1157,52
2525.611409,-20,-54,1157,52
2525.612372,-22,-33,1157,52
2525.613351,-22,-40,1157,52
2525.614393,-24,-47,1157,52
2525.615399,-26,-45,1157,52
2525.616323,-29,-74,1157,52
2525.6173,-34,-120,1157,52
2525.618375,-41,-142,1157,52
2525.619327,-45,-86,1157,52
2525.620303,-46,-4,1157,52
2525.621315,-47,17,1157,52
2525.622302,-51,-4,1157,52
2525.623268,-55,-42,1157,52
2525.624279,-59,-65,1157,52
2525.625361,-60,-46,1157,52
2525.626263,-60,-41,1157,52
2525.627236,-62,-102,1157,52
2525.628255,-64,-134,1157,52
2525.629234,-62,-82,1157,52
2525.630224,-58,-37,1157,52
2525.631338,-58,-49,1157,52
2525.632227,-59,-54,1157,52
2525.633234,-60,-66,1157,52
2525.634204,-61,-71,1157,52
2525.635213,-62,-51,1157,52
2525.636261,-60,-50,1157,52
2525.637199,-57,-48,1157,52
2525.638186,-52,-41,1157,52
2525.63917,-49,-35,1157,52
2525.640237,-52,-68,1157,52
2525.641174,-59,-106,1157,52
2525.642166,-62,-75,1157,52
2525.643147,-61,-13,1157,52
2525.644164,-59,-21,1157,52
2525.645131,-58,-35,1157,52
2525.646126,-57,-28,1157,52
2525.647118,-54,-32,1157,52
2525.648114,-49,-29,1157,52
2525.649132,-45,-10,1157,52
2525.650106,-44,-27,1157,52
2525.651102,-46,-75,1157,52
2525.65206,-48,-94,1157,52
2525.653096,-50,-106,1157,52
2525.654166,-52,-114,1157,52
2525.655068,-56,-127,1157,52
2525.656071,-58,-104,1157,52
2525.657056,-60,-73,1157,52
2525.658049,-61,-70,1157,52
2525.65903,-63,-78,1157,52
2525.660024,-65,-99,1157,52
2525.661011,-65,-109,1157,52
2525.661996,-66,-86,1157,52
2525.663031,-68,-53,1157,52
2525.664004,-68,-33,1157,52
2525.665002,-67,-8,1157,52
2525.666001,-65,4,1157,52
2525.666986,-63,6,1157,52
2525.66798,-61,14,1157,52
2525.668982,-61,-4,1157,52
2525.669981,-63,-71,1157,52
2525.670961,-64,-91,1157,52
2525.671914,-62,-61,1157,52
2525.672947,-59,-50,1157,52
2525.673961,-56,-53,1157,52
2525.674976,-53,-54,1157,52
2525.675954,-49,-33,1157,52
2525.676917,-47,-23,1157,52
2525.677912,-44,-10,1157,52
2525.678978,-38,32,1157,52
2525.679899,-30,71,1157,52
2525.68097,-19,113,1157,52
2525.681875,-5,177,1157,52
2525.682863,8,236,1157,52
2525.683878,23,258,1157,52
2525.684886,38,300,1157,52
2525.685861,55,343,1157,52
2525.686862,73,363,1157,52
2525.687887,90,350,1157,52
2525.688839,107,339,1157,52
2525.689845,129,363,1157,52
2525.690844,153,404,1157,52
2525.691908,179,445,1157,52
2525.692816,205,480,1157,52
2525.693808,231,456,1157,52
2525.694834,253,389,1157,52
2525.695761,272,352,1157,52
2525.696792,289,313,1157,52
2525.697798,302,261,1157,52
2525.698788,312,230,1157,52
2525.699767,319,200,1157,52
2525.700756,322,173,1157,52
2525.701739,321,167,1157,52
2525.702815,317,146,1157,52
2525.703738,309,101,1157,52
2525.704706,296,50,1157,52
2525.705718,278,-22,1157,52
2525.706743,257,-55,1157,52
2525.70772,238,-41,1157,52
2525.708719,219,-38,1157,52
2525.709698,200,-11,1157,52
2525.710706,181,24,1157,52
2525.711679,159,1,1157,52
2525.712667,133,-32,1157,52
2525.713679,109,-19,1157,52
2525.714645,90,0,1157,52
2525.715655,73,6,1157,52
2525.71667,57,-7,1157,52
2525.717695,41,-48,1157,52
2525.718634,27,-58,1157,52
2525.71963,14,-65,1157,52
2525.720619,0,-92,1157,52
2525.721633,-13,-122,1157,52
2525.722661,-28,-156,1157,52
2525.723614,-40,-125,1157,52
2525.724583,-46,-77,1157,52
2525.725604,-48,-72,1157,52
2525.726597,-49,-65,1157,52
2525.727662,-51,-74,1157,52
2525.728563,-53,-92,1157,52
2525.729567,-56,-76,1157,52
2525.730559,-61,-59,1157,52
2525.731537,-64,-63,1157,52
2525.732557,-65,-62,1157,52
2525.733538,-68,-64,1157,52
2525.734572,-70,-57,1157,52
2525.735519,-74,-66,1157,52
2525.736489,-79,-100,1157,52
2525.737518,-82,-117,1157,52
2525.738553,-86,-136,1157,52
2525.739498,-91,-155,1157,52
2525.740786,-94,-169,1145,52
2525.741643,-95,-142,1145,52
2525.742546,-93,-104,1145,52
2525.743493,-91,-85,1145,52
2525.744515,-90,-62,1145,52
2525.745464,-88,-31,1145,52
2525.746522,-84,6,1145,52
2525.74746,-79,31,1145,52
2525.748447,-73,28,1145,52
2525.749416,-70,-16,1145,52
2525.750422,-70,-56,1145,52
2525.751439,-71,-74,1145,52
2525.752403,-70,-53,1145,52
2525.753423,-68,-27,1145,52
2525.754395,-67,-26,1145,52
2525.75541,-65,-38,1145,52
2525.756409,-63,-53,1145,52
2525.75739,-61,-79,1145,52
2525.758411,-58,-70,1145,52
2525.759374,-53,-58,1145,52
2525.760346,-48,-70,1145,52
2525.761336,-46,-97,1145,52
2525.762333,-47,-121,1145,52
2525.763306,-47,-101,1145,52
2525.764387,-47,-59,1145,52
2525.765316,-48,-53,1145,52
2525.766293,-53,-85,1145,52
2525.767306,-60,-116,1145,52
2525.768268,-68,-118,1145,52
2525.769277,-72,-108,1145,52
2525.770354,-75,-119,1145,52
2525.771336,-78,-132,1145,52
2525.772335,-81,-110,1145,52
2525.773334,-84,-79,1145,52
2525.774333,-86,-68,1145,52
2525.775332,-88,-82,1145,52
2525.77633,-89,-75,1145,52
2525.777329,-88,-55,1145,52
2525.778245,-86,-30,1145,52
2525.779276,-82,11,1145,52
2525.780225,-78,26,1145,52
2525.781225,-71,32,1145,52
2525.782239,-63,47,1145,52
2525.783216,-56,42,1145,52
2525.784215,-52,20,1145,52
2525.785188,-50,-24,1145,52
2525.786179,-49,-62,1145,52
2525.787199,-46,-63,1145,52
2525.788171,-43,-49,1145,52
2525.78917,-39,-38,1145,52
2525.790188,-34,-19,1145,52
2525.791158,-30,-41,1145,52
2525.792264,-28,-69,1145,52
2525.793148,-27,-69,1145,52
2525.794176,-27,-54,1145,52
2525.795124,-24,-34,1145,52
2525.796143,-22,-21,1145,52
2525.797117,-19,-13,1145,52
2525.798119,-18,-3,1145,52
2525.799101,-19,1,1145,52
2525.800111,-20,-2,1145,52
2525.801079,-22,-11,1145,52
2525.802079,-27,-45,1145,52
2525.80307,-31,-48,1145,52
2525.804092,-33,-16,1145,52
2525.805099,-33,-21,1145,52
2525.806058,-33,-55,1145,52
2525.807044,-33,-72,1145,52
2525.808055,-34,-63,1145,52
2525.809054,-35,-59,1145,52
2525.810021,-37,-60,1145,52
2525.81102,-36,-35,1145,52
2525.811982,-33,6,1145,52
2525.813022,-27,47,1145,52
2525.814006,-21,67,1145,52
2525.814998,-18,33,1145,52
2525.815986,-17,-17,1145,52
2525.816986,-20,-64,1145,52
2525.817973,-23,-74,1145,52
2525.818971,-26,-41,1145,52
2525.819973,-26,-11,1145,52
2525.820953,-24,19,1145,52
2525.821957,-19,58,1145,52
2525.822963,-15,45,1145,52
2525.823992,-15,-29,1145,52
2525.824946,-18,-74,1145,52
2525.825933,-19,-76,1145,52
2525.826925,-18,-54,1145,52
2525.827897,-17,-47,1145,52
2525.828923,-18,-74,1145,52
2525.829877,-20,-90,1145,52
2525.830912,-22,-77,1145,52
2525.831895,-24,-40,1145,52
2525.832868,-27,-16,1145,52
2525.833871,-32,-23,1145,52
2525.834866,-35,-32,1145,52
2525.835878,-34,-5,1145,52
2525.836863,-32,-18,1145,52
2525.837953,-32,-76,1145,52
2525.838848,-34,-80,1145,52
2525.83984,-34,-19,1145,52
2525.840826,-33,41,1145,52
2525.841808,-32,76,1145,52
2525.842816,-30,95,1145,52
2525.843818,-23,100,1145,52
2525.844808,-15,105,1145,52
2525.845778,-7,81,1145,52
2525.846808,-1,52,1145,52
2525.84778,2,46,1145,52
2525.848796,6,7,1145,52
2525.849781,10,-25,1145,52
2525.850768,12,-23,1145,52
2525.851782,14,-11,1145,52
2525.852762,14,-15,1145,52
2525.85375,12,-53,1145,52
2525.85476,12,-42,1145,52
2525.85574,11,-27,1145,52
2525.856746,9,-44,1145,52
2525.857723,11,-48,1145,52
2525.858722,13,-45,1145,52
2525.859686,11,-42,1145,52
2525.860691,6,-62,1145,52
2525.861705,0,-75,1145,52
2525.862691,-7,-30,1145,52
2525.863677,-10,32,1145,52
2525.86469,-10,96,1145,52
2525.865675,-11,78,1145,52
2525.866668,-12,22,1145,52
2525.867663,-14,10,1145,52
2525.868637,-12,36,1145,52
2525.869655,-10,33,1145,52
2525.870666,-7,21,1145,52
2525.87181,-6,22,1145,52
2525.872656,-4,9,1145,52
2525.873643,-2,-2,1145,52
2525.874609,1,32,1145,52
2525.875594,6,70,1145,52
2525.876615,11,66,1145,52
2525.877573,16,54,1145,52
2525.878574,22,64,1145,52
2525.879581,27,67,1145,52
2525.880545,34,82,1145,52
2525.881582,44,127,1145,52
2525.882564,53,134,1145,52
2525.883557,58,133,1145,52
2525.884599,60,138,1145,52
2525.885533,62,125,1145,52
2525.886535,65,73,1145,52
2525.887531,65,9,1145,52
2525.888513,60,-48,1145,52
2525.889506,56,-63,1145,52
2525.890496,53,-41,1145,52
2525.891496,50,-26,1145,52
2525.892479,49,-22,1145,52
2525.893475,47,-38,1145,52
2525.894461,43,-50,1145,52
2525.895484,36,-60,1145,52
2525.896459,32,-26,1145,52
2525.897458,31,40,1145,52
2525.898446,31,57,1145,52
2525.899452,29,41,1145,52
2525.900474,26,23,1145,52
2525.901406,20,5,1145,52
2525.902415,15,25,1145,52
2525.903443,11,49,1145,52
2525.904397,6,54,1145,52
2525.905465,4,70,1145,52
2525.906384,2,45,1145,52
2525.907406,2,0,1145,52
2525.908367,2,-47,1145,52
2525.909361,2,-65,1145,52
2525.910362,3,-18,1145,52
2525.911356,7,52,1145,52
2525.912342,14,113,1145,52
2525.913341,23,151,1145,52
2525.91436,32,133,1145,52
2525.915355,41,120,1145,52
2525.916596,47,101,1145,52
2525.917497,50,87,1145,52
2525.918321,54,142,1145,52
2525.919309,61,175,1145,52
2525.9203,67,144,1145,52
2525.92132,69,55,1145,52
2525.922282,68,-11,1145,52
2525.923317,63,-37,1145,52
2525.924271,60,-5,1145,52
2525.925258,60,64,1145,52
2525.926244,62,84,1145,52
2525.927268,65,60,1145,52
2525.928306,70,51,1145,52
2525.929239,76,52,1145,52
2525.930228,79,48,1145,52
2525.931222,79,52,1145,52
2525.932201,76,57,1145,52
2525.933228,70,35,1145,52
2525.934192,65,22,1145,52
2525.935196,61,35,1145,52
2525.936192,59,66,1145,52
2525.937178,59,93,1145,52
2525.938198,56,70,1145,52
2525.939167,49,39,1145,52
2525.940161,43,25,1145,52
2525.941158,41,20,1145,52
2525.942152,43,28,1145,52
2525.943142,46,30,1145,52
2525.944121,47,12,1145,52
2525.945117,45,27,1145,52
2525.946127,45,76,1145,52
2525.947134,48,125,1145,52
2525.948114,54,177,1145,52
2525.949104,61,185,1145,52
2525.950115,66,147,1145,52
2525.95111,69,117,1145,52
2525.952091,72,118,1145,52
2525.953079,76,113,1145,52
2525.954076,81,126,1145,52
2525.955108,83,60,1145,52
2525.956092,78,-21,1145,52
2525.957054,72,-27,1145,52
2525.958015,71,36,1145,52
2525.959024,72,75,1145,52
2525.960034,75,84,1145,52
2525.96103,79,93,1145,52
2525.962019,83,110,1145,52
2525.96306,89,147,1145,52
2525.964023,97,181,1145,52
2525.965025,103,138,1145,52
2525.966012,102,55,1145,52
2525.966979,95,-9,1145,52
2525.968005,85,-24,1145,52
2525.968985,77,13,1145,52
2525.969977,73,66,1145,52
2525.970967,72,100,1145,52
2525.972061,71,103,1145,52
2525.972957,70,86,1145,52
2525.973973,66,63,1145,52
2525.974948,66,52,1145,52
2525.97596,71,76,1145,52
2525.97694,77,96,1145,52
2525.977927,80,99,1145,52
2525.978925,80,67,1145,52
2525.979973,79,65,1145,52
2525.980898,79,102,1145,52
2525.98189,80,132,1145,52
2525.982872,81,158,1145,52
2525.984002,81,189,1145,52
2525.984917,85,207,1145,52
2525.985897,90,163,1145,52
2525.986884,96,103,1145,52
2525.987873,99,45,1145,52
2525.988844,99,6,1145,52
2525.989869,96,11,1145,52
2525.990855,95,76,1145,52
2525.99184,97,145,1145,52
2525.992865,101,166,1145,52
2525.993862,105,143,1145,52
2525.995032,109,127,1145,52
2525.99583,112,135,1145,52
2525.996804,114,149,1145,52
2525.99778,116,131,1145,52
2525.998774,119,132,1145,52
2525.999768,125,188,1145,52
2526.000775,134,278,1145,52
2526.001791,141,262,1145,52
2526.00277,142,183,1145,52
2526.003771,138,115,1145,52
2526.004739,131,61,1145,52
2526.005762,124,33,1145,52
2526.006756,120,5,1145,52
2526.007723,117,-1,1145,52
2526.008716,119,35,1145,52
2526.009728,122,80,1145,52
2526.0107,123,86,1145,52
2526.011726,119,80,1145,52
2526.012721,116,103,1145,52
2526.013704,116,140,1145,52
2526.01469,116,130,1145,52
2526.015686,115,102,1145,52
2526.016663,111,80,1145,52
2526.017655,109,78,1145,52
2526.018656,107,93,1145,52
2526.019633,103,125,1145,52
2526.020641,96,129,1145,52
2526.021639,88,105,1145,52
2526.022647,82,69,1145,52
2526.023652,77,7,1145,52
2526.024627,71,-57,1145,52
2526.025616,66,-65,1145,52
2526.026598,65,-28,1145,52
2526.027578,65,14,1145,52
2526.028578,65,22,1145,52
2526.029588,62,23,1145,52
2526.030578,59,25,1145,52
2526.031571,56,27,1145,52
2526.032568,53,32,1145,52
2526.033571,47,36,1145,52
2526.034547,43,50,1145,52
2526.035543,41,45,1145,52
2526.036533,36,-8,1145,52
2526.037554,29,-55,1145,52
2526.038578,22,-63,1145,52
2526.039553,12,-70,1145,52
2526.040522,2,-60,1145,52
2526.041512,-4,-49,1145,52
2526.04252,-10,-55,1145,52
2526.043524,-14,-64,1145,52
2526.044492,-17,-126,1145,52
2526.045495,-23,-173,1145,52
2526.04648,-31,-183,1145,52
2526.047464,-39,-154,1145,52
2526.048452,-46,-126,1145,52
2526.049448,-54,-124,1145,52
2526.050446,-62,-141,1145,52
2526.051448,-70,-140,1145,52
2526.052518,-76,-83,1145,52
2526.053444,-80,-35,1145,52
2526.054414,-84,-35,1145,52
2526.055426,-88,-43,1145,52
2526.056422,-91,-60,1145,52
2526.057418,-92,-80,1145,52
2526.058435,-94,-101,1145,52
2526.059411,-96,-111,1145,52
2526.060379,-99,-118,1145,52
2526.061383,-103,-130,1145,52
2526.062367,-107,-123,1145,52
2526.063431,-108,-102,1145,52
2526.06442,-107,-88,1145,52
2526.06539,-103,-107,1145,52
2526.066388,-101,-133,1145,52
2526.067335,-100,-144,1145,52
2526.068335,-101,-149,1145,52
2526.069346,-103,-165,1145,52
2526.070347,-104,-157,1145,52
2526.071322,-102,-100,1145,52
2526.07233,-100,-43,1145,52
2526.073305,-100,-34,1145,52
2526.074277,-102,-70,1145,52
2526.075305,-105,-107,1145,52
2526.076299,-108,-109,1145,52
2526.077266,-110,-137,1145,52
2526.078271,-113,-146,1145,52
2526.079258,-112,-97,1145,52
2526.080247,-109,-67,1145,52
2526.081271,-107,-80,1145,52
2526.082239,-106,-109,1145,52
2526.083251,-107,-125,1145,52
2526.084224,-111,-163,1145,52
2526.085215,-116,-203,1145,52
2526.086228,-119,-191,1145,52
2526.087205,-120,-165,1145,52
2526.088196,-120,-148,1145,52
2526.089216,-119,-141,1145,52
2526.090186,-119,-157,1145,52
2526.091161,-122,-171,1145,52
2526.092174,-130,-192,1145,52
2526.093223,-138,-200,1145,52
2526.094172,-143,-163,1145,52
2526.095157,-142,-102,1145,52
2526.096165,-140,-53,1145,52
2526.097141,-136,-61,1145,52
2526.098143,-132,-71,1145,52
2526.099118,-131,-75,1145,52
2526.100129,-132,-82,1145,52
2526.101111,-132,-81,1145,52
2526.102139,-130,-66,1145,52
2526.1031,-125,-26,1145,52
2526.104103,-117,-16,1145,52
2526.105098,-109,-31,1145,52
2526.106106,-103,-70,1145,52
2526.107088,-99,-94,1145,52
2526.108089,-97,-100,1145,52
2526.109073,-96,-134,1145,52
2526.110066,-97,-177,1145,52
2526.111051,-96,-153,1145,52
2526.112032,-91,-86,1145,52
2526.113019,-83,-38,1145,52
2526.114007,-75,-12,1145,52
2526.115031,-71,-20,1145,52
2526.116033,-71,-53,1145,52
2526.116999,-71,-49,1145,52
2526.118042,-68,-25,1145,52
2526.118999,-68,-57,1145,52
2526.119997,-67,-74,1145,52
2526.120986,-65,-34,1145,52
2526.121975,-62,-19,1145,52
2526.123004,-64,-58,1145,52
2526.12399,-68,-95,1145,52
2526.124983,-72,-103,1145,52
2526.125951,-70,-40,1145,52
2526.126938,-64,24,1145,52
2526.127937,-57,37,1145,52
2526.128941,-48,59,1145,52
2526.129948,-35,79,1145,52
2526.1309,-23,86,1145,52
2526.13192,-16,55,1145,52
2526.132919,-12,32,1145,52
2526.133915,-10,34,1145,52
2526.13494,-8,19,1145,52
2526.135888,-7,-23,1145,52
2526.136888,-6,-40,1145,52
2526.137893,-7,-42,1145,52
2526.138918,-7,-55,1145,52
2526.13985,-7,-73,1145,52
2526.140858,-8,-60,1145,52
2526.14188,-8,-24,1145,52
2526.142865,-5,5,1145,52
2526.143842,1,56,1145,52
2526.14482,10,80,1145,52
2526.145816,15,49,1145,52
2526.146804,15,25,1145,52
2526.147791,14,16,1145,52
2526.148817,11,0,1145,52
2526.149759,6,-18,1145,52
2526.150787,0,-43,1145,52
2526.151778,-6,-73,1145,52
2526.152763,-9,-38,1145,52
2526.153779,-10,19,1145,52
2526.154743,-9,34,1145,52
2526.15577,-9,-12,1145,52
2526.156736,-11,-84,1145,52
2526.157721,-15,-130,1145,52
2526.158784,-18,-101,1145,52
2526.15973,-17,-70,1145,52
2526.160717,-18,-64,1145,52
2526.161715,-19,-50,1145,52
2526.162703,-21,-28,1145,52
2526.163689,-23,16,1145,52
2526.164682,-23,67,1145,52
2526.165655,-23,60,1145,52
2526.166706,-24,-2,1145,52
2526.167731,-27,-37,1145,52
2526.169175,-27,-2,1145,52
2526.17196,-23,56,1145,52
2526.17237,-18,63,1145,52
2526.172405,-13,22,1145,52
2526.172671,-11,-4,1145,52
2526.173658,-13,-19,1145,52
2526.174663,-16,-25,1145,52
2526.175641,-15,3,1145,52
2526.176625,-10,32,1145,52
2526.177612,-1,48,1145,52
2526.178596,5,43,1145,52
2526.179629,9,-9,1145,52
2526.18059,11,-22,1145,52
2526.181579,15,36,1145,52
2526.182567,18,30,1145,52
2526.18358,13,-78,1145,52
2526.18457,4,-112,1145,52
2526.185877,-1,-63,1145,52
2526.187181,-2,-14,1145,52
2526.187573,0,1,1145,52
2526.188547,-1,-31,1145,52
2526.189528,-9,-91,1145,52
2526.190524,-18,-117,1145,52
2526.191505,-23,-85,1145,52
2526.192508,-25,-50,1145,52
2526.193478,-26,-31,1145,52
2526.194507,-25,-4,1145,52
2526.195471,-24,27,1145,52
2526.196479,-24,24,1145,52
2526.19746,-27,-11,1145,52
2526.198462,-30,-15,1145,52
2526.199449,-28,26,1145,52
2526.200461,-26,16,1145,52
2526.201447,-29,-28,1145,52
2526.202422,-33,-53,1145,52
2526.20343,-35,-103,1145,52
2526.20443,-36,-132,1145,52
2526.205418,-38,-99,1145,52
2526.20641,-40,-68,1145,52
2526.207394,-42,-42,1145,52
2526.208382,-41,-13,1145,52
2526.209406,-36,13,1145,52
2526.210376,-30,2,1145,52
2526.211385,-27,-22,1145,52
2526.212379,-26,-23,1145,52
2526.21338,-26,-30,1145,52
2526.214386,-26,-10,1145,52
2526.215386,-28,-8,1145,52
2526.216348,-30,-22,1145,52
2526.217323,-31,-20,1145,52
2526.218336,-30,3,1145,52
2526.219334,-30,13,1145,52
2526.220331,-32,-20,1145,52
2526.221299,-34,-58,1145,52
2526.222312,-34,-58,1145,52
2526.223289,-30,-21,1145,52
2526.224278,-23,3,1145,52
2526.225277,-18,9,1145,52
2526.22628,-13,26,1145,52
2526.227275,-9,34,1145,52
2526.228265,-8,8,1145,52
2526.229269,-11,-49,1145,52
2526.230253,-15,-76,1145,52
2526.231337,-17,-53,1145,52
2526.232238,-18,-41,1145,52
2526.233259,-19,-61,1145,52
2526.234213,-22,-68,1145,52
2526.235245,-24,-43,1145,52
2526.236215,-25,-46,1145,52
2526.237205,-28,-74,1145,52
2526.238197,-34,-128,1145,52
2526.239195,-43,-154,1145,52
2526.240212,-50,-160,1145,52
2526.241183,-53,-120,1145,52
2526.242161,-51,-22,1145,52
2526.243174,-47,52,1145,52
2526.244195,-44,68,1145,52
2526.245146,-42,48,1145,52
2526.246126,-43,4,1145,52
2526.247134,-46,-28,1145,52
2526.248141,-49,-56,1145,52
2526.249126,-49,-49,1145,52
2526.250131,-47,-38,1145,52
2526.251123,-47,-34,1145,52
2526.252106,-46,-22,1145,52
2526.253102,-41,21,1145,52
2526.254078,-37,28,1145,52
2526.255074,-35,-14,1145,52
2526.256074,-36,-60,1145,52
2526.257108,-36,-74,1145,52
2526.258069,-32,-59,1145,52
2526.259058,-27,-50,1145,52
2526.260043,-21,-30,1145,52
2526.261042,-15,-4,1145,52
2526.262032,-13,21,1145,52
2526.263015,-13,48,1145,52
2526.264078,-13,68,1145,52
2526.265008,-13,58,1145,52
2526.266005,-12,13,1145,52
2526.26701,-12,-18,1145,52
2526.268001,-11,-51,1145,52
2526.268993,-12,-69,1145,52
2526.269989,-14,-75,1145,52
2526.270983,-16,-62,1145,52
2526.271975,-17,-49,1145,52
2526.272966,-20,-38,1145,52
2526.273961,-23,-27,1145,52
2526.274941,-24,-38,1145,52
2526.275924,-21,-12,1145,52
2526.276946,-17,16,1145,52
2526.277927,-15,-15,1145,52
2526.279022,-15,-59,1145,52
2526.27992,-16,-56,1145,52
2526.281005,-18,-42,1145,52
2526.281923,-21,-29,1145,52
2526.282896,-24,-24,1145,52
2526.283884,-28,-4,1145,52
2526.284878,-30,22,1145,52
2526.285896,-30,1,1145,52
2526.286871,-31,-22,1145,52
2526.287888,-29,-20,1145,52
2526.288848,-25,8,1145,52
2526.289999,-20,21,1145,52
2526.290842,-16,29,1145,52
2526.29185,-12,20,1145,52
2526.292833,-9,22,1145,52
2526.293826,-7,30,1145,52
2526.294823,-5,-3,1145,52
2526.295816,-8,-71,1145,52
2526.296827,-13,-94,1145,52
2526.297812,-16,-64,1145,52
2526.298779,-13,-10,1145,52
2526.299789,-10,17,1145,52
2526.300788,-7,6,1145,52
2526.30178,-6,-7,1145,52
2526.302758,-6,-18,1145,52
2526.303732,-6,-15,1145,52
2526.304742,-7,20,1145,52
2526.305721,-6,2,1145,52
2526.306748,-8,-58,1145,52
2526.307738,-12,-87,1145,52
2526.308721,-15,-57,1145,52
2526.309718,-17,-27,1145,52
2526.310718,-21,-37,1145,52
2526.311701,-24,-52,1145,52
2526.312707,-27,-27,1145,52
2526.313691,-27,29,1145,52
2526.31468,-24,48,1145,52
2526.31568,-19,37,1145,52
2526.316671,-14,-5,1145,52
2526.317674,-13,-36,1145,52
2526.318659,-14,-41,1145,52
2526.319661,-17,-35,1145,52
2526.320647,-19,-28,1145,52
2526.321655,-21,-55,1145,52
2526.322632,-26,-112,1145,52
2526.323636,-31,-119,1145,52
2526.324631,-35,-67,1145,52
2526.325609,-37,-39,1145,52
2526.326604,-37,-50,1145,52
2526.327581,-36,-73,1145,52
2526.328588,-36,-56,1145,52
2526.329587,-36,-18,1145,52
2526.330577,-32,32,1145,52
2526.331562,-28,44,1145,52
2526.332568,-23,60,1145,52
2526.333562,-20,84,1145,52
2526.334573,-20,62,1145,52
2526.335555,-21,11,1145,52
2526.336538,-21,1,1145,52
2526.337505,-19,9,1145,52
2526.338535,-18,-28,1145,52
2526.339519,-20,-80,1145,52
2526.340524,-23,-86,1145,52
2526.341508,-24,-81,1145,52
2526.342523,-23,-90,1145,52
2526.343509,-21,-68,1145,52
2526.344478,-18,-17,1145,52
2526.345488,-15,25,1145,52
2526.346584,-10,49,1145,52
2526.347486,-2,89,1145,52
2526.348456,6,126,1145,52
2526.349469,14,142,1145,52
2526.350455,20,157,1145,52
2526.351443,23,104,1145,52
2526.352433,21,13,1145,52
2526.353441,16,-25,1145,52
2526.354418,11,-29,1145,52
2526.35546,8,-56,1145,52
2526.356431,3,-88,1145,52
2526.357413,0,-81,1145,52
2526.358386,-2,-57,1145,52
2526.359393,0,-47,1145,52
2526.36038,1,-49,1145,52
2526.361373,3,-32,1145,52
2526.362366,9,15,1145,52
2526.363384,15,65,1145,52
2526.364367,19,67,1145,52
2526.36536,20,44,1145,52
2526.366353,20,38,1145,52
2526.367362,17,42,1145,52
2526.368326,14,51,1145,52
2526.369319,9,45,1145,52
2526.370327,2,23,1145,52
2526.371296,-2,5,1145,52
2526.372329,-2,5,1145,52
2526.373329,0,30,1145,52
2526.374308,3,45,1145,52
2526.375268,8,30,1145,52
2526.376275,13,12,1145,52
2526.377268,16,-8,1145,52
2526.378258,18,-21,1145,52
2526.37924,18,-40,1145,52
2526.380244,19,-29,1145,52
2526.381245,22,29,1145,52
2526.38224,24,38,1145,52
2526.383279,21,10,1145,52
2526.384323,17,-14,1145,52
2526.385234,13,-32,1145,52
2526.386222,10,-16,1145,52
2526.387202,9,16,1145,52
2526.38821,7,10,1145,52
2526.389246,4,-19,1145,52
2526.390238,1,-34,1145,52
2526.391191,-1,-44,1145,52
2526.392197,-1,-6,1145,52
2526.39321,-1,27,1145,52
2526.394168,-3,8,1145,52
2526.395167,-5,0,1145,52
2526.396162,-5,13,1145,52
2526.39714,-3,23,1145,52
2526.39811,-1,21,1145,52
2526.399141,1,12,1145,52
2526.400153,3,8,1145,52
2526.40114,0,-23,1145,52
2526.402121,-3,-44,1145,52
2526.403119,-5,-31,1145,52
2526.404119,-5,-8,1145,52
2526.405086,-4,-22,1145,52
2526.406083,-6,-53,1145,52
2526.407077,-11,-85,1145,52
2526.408055,-16,-77,1145,52
2526.409039,-16,-33,1145,52
2526.41009,-14,20,1145,52
2526.411059,-10,35,1145,52
2526.412063,-10,-20,1145,52
2526.413034,-14,-53,1145,52
2526.414026,-19,-74,1145,52
2526.415026,-23,-82,1145,52
2526.416013,-25,-37,1145,52
2526.417015,-23,63,1145,52
2526.417998,-17,142,1145,52
2526.41899,-11,139,1145,52
2526.420039,-8,65,1145,52
2526.420964,-5,28,1145,52
2526.421996,-1,38,1145,52
2526.422998,0,18,1145,52
2526.423963,0,-29,1145,52
2526.425011,0,-30,1145,52
2526.425955,0,-25,1145,52
2526.426961,3,-21,1145,52
2526.427958,7,3,1145,52
2526.428914,10,28,1145,52
2526.429882,10,12,1145,52
2526.430929,9,6,1145,52
2526.431926,11,23,1145,52
2526.432903,15,25,1145,52
2526.433898,18,-16,1145,52
2526.435008,20,-35,1145,52
2526.435875,20,-30,1145,52
2526.436873,16,-31,1145,52
2526.437983,8,-15,1145,52
2526.438875,-1,-45,1145,52
2526.439898,-10,-126,1145,52
2526.440838,-17,-115,1145,52
2526.441875,-21,-46,1145,52
2526.442855,-23,-22,1145,52
2526.443811,-25,-52,1145,52
2526.444806,-26,-61,1145,52
2526.445787,-27,-38,1145,52
2526.446796,-26,5,1145,52
2526.447798,-22,64,1145,52
2526.448798,-19,91,1145,52
2526.449789,-16,71,1145,52
2526.450833,-15,30,1145,52
2526.451759,-15,28,1145,52
2526.452765,-14,40,1145,52
2526.453767,-12,22,1145,52
2526.454773,-11,-1,1145,52
2526.455808,-10,-12,1145,52
2526.456743,-10,-42,1145,52
2526.45777,-13,-70,1145,52
2526.458738,-14,-57,1145,52
2526.459759,-9,-29,1145,52
2526.460728,-4,-26,1145,52
2526.461702,-3,-16,1145,52
2526.462702,-1,7,1145,52
2526.463692,2,28,1145,52
2526.464688,6,19,1145,52
2526.465703,7,-6,1145,52
2526.466709,6,-27,1145,52
2526.467725,0,-44,1145,52
2526.468651,-5,-40,1145,52
2526.46965,-10,-27,1145,52
2526.470636,-13,-27,1145,52
2526.471641,-15,-10,1145,52
2526.472627,-16,9,1145,52
2526.473625,-17,12,1145,52
2526.474626,-17,1,1145,52
2526.475622,-17,-16,1145,52
2526.476615,-15,-6,1145,52
2526.477611,-12,3,1145,52
2526.478637,-10,-23,1145,52
2526.479621,-11,-59,1145,52
2526.48057,-13,-63,1145,52
2526.481565,-14,-23,1145,52
2526.482587,-14,-3,1145,52
2526.483567,-16,-5,1145,52
2526.484531,-16,24,1145,52
2526.485554,-14,26,1145,52
2526.486522,-13,-13,1145,52
2526.487506,-13,-36,1145,52
2526.488546,-13,-48,1145,52
2526.489561,-15,-69,1145,52
2526.49054,-18,-80,1145,52
2526.491524,-21,-72,1145,52
2526.492501,-24,-46,1145,52
2526.493506,-26,-35,1145,52
2526.494494,-28,-31,1145,52
2526.495479,-28,-12,1145,52
2526.496478,-27,11,1145,52
2526.497454,-25,38,1145,52
2526.498447,-21,55,1145,52
2526.499456,-16,39,1145,52
2526.500468,-12,17,1145,52
2526.501445,-10,13,1145,52
2526.50252,-11,-9,1145,52
2526.503525,-11,-16,1145,52
2526.504424,-12,2,1145,52
2526.505435,-14,-6,1145,52
2526.506392,-15,-38,1145,52
2526.507418,-16,-52,1145,52
2526.508379,-14,-16,1145,52
2526.509451,-10,20,1145,52
2526.5104,-6,-5,1145,52
2526.511422,-5,-56,1145,52
2526.512391,-6,-63,1145,52
2526.513361,-6,-23,1145,52
2526.514519,-4,-6,1145,52
2526.515347,-6,-36,1145,52
2526.516348,-8,-46,1145,52
2526.517328,-11,-11,1145,52
2526.518306,-13,5,1145,52
2526.519352,-14,25,1145,52
2526.520318,-13,32,1145,52
2526.521315,-13,19,1145,52
2526.522297,-11,37,1145,52
2526.523297,-8,33,1145,52
2526.524287,-8,-1,1145,52
2526.525293,-7,15,1145,52
2526.526287,-2,64,1145,52
2526.527264,3,78,1145,52
2526.52825,9,90,1145,52
2526.529236,13,108,1145,52
2526.530246,18,103,1145,52
2526.531244,24,63,1145,52
2526.532289,28,17,1145,52
2526.533246,29,-13,1145,52
2526.534222,27,-45,1145,52
2526.535236,25,-77,1145,52
2526.536227,24,-69,1145,52
2526.537214,22,-47,1145,52
2526.538207,19,-56,1145,52
2526.539192,14,-75,1145,52
2526.540262,9,-61,1145,52
2526.541216,7,-33,1145,52
2526.542226,4,-16,1145,52
2526.543201,3,13,1145,52
2526.544156,3,5,1145,52
2526.545131,0,-48,1145,52
2526.546128,-6,-72,1145,52
2526.547142,-10,-16,1145,52
2526.548116,-13,36,1145,52
2526.54915,-17,35,1145,52
2526.550119,-21,22,1145,52
2526.55114,-22,48,1145,52
2526.552088,-20,54,1145,52
2526.55308,-17,47,1145,52
2526.554072,-13,31,1145,52
2526.555096,-9,3,1145,52
2526.55608,-6,-3,1145,52
2526.55706,-3,12,1145,52
2526.558078,1,34,1145,52
2526.559067,5,5,1145,52
2526.560049,6,-43,1145,52
2526.561076,5,-48,1145,52
2526.562119,3,-47,1145,52
2526.563014,0,-46,1145,52
2526.564019,0,-11,1145,52
2526.565008,5,56,1145,52
2526.565998,11,57,1145,52
2526.566996,12,3,1145,52
2526.568008,9,-23,1145,52
2526.569,8,2,1145,52
2526.570044,6,-3,1145,52
2526.570965,2,-50,1145,52
2526.57199,-5,-88,1145,52
2526.572978,-12,-91,1145,52
2526.573958,-17,-80,1145,52
2526.57499,-21,-68,1145,52
2526.575943,-23,-50,1145,52
2526.576941,-24,-3,1145,52
2526.577976,-24,34,1145,52
2526.578898,-23,29,1145,52
2526.579884,-18,47,1145,52
2526.580899,-13,59,1145,52
2526.582031,-8,43,1145,52
2526.582875,-5,26,1145,52
2526.583892,-4,-5,1145,52
2526.584862,-9,-47,1145,52
2526.585866,-15,-63,1145,52
2526.586846,-18,-39,1145,52
2526.587865,-17,-10,1145,52
2526.588836,-17,-7,1145,52
2526.58984,-18,-7,1145,52
2526.590827,-15,3,1145,52
2526.591839,-9,26,1145,52
2526.59282,-4,20,1145,52
2526.593823,0,11,1145,52
2526.594815,3,-8,1145,52
2526.595789,4,-20,1145,52
2526.596791,4,-4,1145,52
2526.59782,2,-13,1145,52
2526.598781,0,-32,1145,52
2526.599746,-2,6,1145,52
2526.60077,-2,56,1145,52
2526.601762,-2,52,1145,52
2526.602746,-2,28,1145,52
2526.60374,-1,15,1145,52
2526.60474,1,8,1145,52
2526.605758,4,-14,1145,52
2526.606736,3,-50,1145,52
2526.607718,2,-39,1145,52
2526.608702,1,-18,1145,52
2526.609703,1,-7,1145,52
2526.610735,0,-12,1145,52
2526.611709,-1,-18,1145,52
2526.612688,-2,-2,1145,52
2526.61369,-3,-1,1145,52
2526.614677,-3,-16,1145,52
2526.615676,-4,-34,1145,52
2526.616656,-6,-44,1145,52
2526.617659,-7,-31,1145,52
2526.618657,-5,-2,1145,52
2526.619672,-3,55,1145,52
2526.620639,-2,71,1145,52
2526.621693,-1,75,1145,52
2526.622639,1,87,1145,52
2526.623624,4,66,1145,52
2526.624608,6,52,1145,52
2526.625596,9,48,1145,52
2526.626604,12,18,1145,52
2526.627586,13,-19,1145,52
2526.628613,12,-44,1145,52
2526.629565,9,-64,1145,52
2526.630553,6,-75,1145,52
2526.631534,3,-74,1145,52
2526.63256,1,-52,1145,52
2526.633555,0,-26,1145,52
2526.634537,0,-1,1145,52
2526.635558,2,2,1145,52
2526.636531,4,-3,1145,52
2526.637538,5,-17,1145,52
2526.638513,3,-34,1145,52
2526.639541,0,-18,1145,52
2526.640508,-3,2,1145,52
2526.641533,-7,-2,1145,52
2526.64248,-11,-4,1145,52
2526.643468,-14,17,1145,52
2526.644488,-16,14,1145,52
2526.645465,-18,2,1145,52
2526.64648,-19,-2,1145,52
2526.647504,-19,-29,1145,52
2526.648446,-19,-41,1145,52
2526.649448,-18,-33,1145,52
2526.650516,-16,-49,1145,52
2526.651493,-15,-44,1145,52
2526.65242,-12,11,1145,52
2526.653433,-8,51,1145,52
2526.654386,-6,45,1145,52
2526.655438,-7,-26,1145,52
2526.656413,-11,-86,1145,52
2526.657466,-14,-79,1145,52
2526.658436,-13,-4,1145,52
2526.659399,-8,76,1145,52
2526.660384,-3,105,1145,52
2526.661508,1,103,1145,52
2526.662363,7,116,1145,52
2526.663348,11,91,1145,52
2526.664335,13,51,1145,52
2526.665413,15,37,1145,52
2526.666321,17,44,1145,52
2526.667309,21,58,1145,52
2526.668335,25,41,1145,52
2526.669342,28,13,1145,52
2526.670335,30,-6,1145,52
2526.671297,32,1,1145,52
2526.672287,33,30,1145,52
2526.673281,33,46,1145,52
2526.674324,33,45,1145,52
2526.675254,37,59,1145,52
2526.676258,44,48,1145,52
2526.67725,49,34,1145,52
2526.678265,52,46,1145,52
2526.679247,51,67,1145,52
2526.680227,51,86,1145,52
2526.681217,50,98,1145,52
2526.682221,48,77,1145,52
2526.683233,47,74,1145,52
2526.684231,49,80,1145,52
2526.685198,51,84,1145,52
2526.686214,53,70,1145,52
2526.687225,53,63,1145,52
2526.688228,53,53,1145,52
2526.689304,55,49,1145,52
2526.690204,59,62,1145,52
2526.691175,61,48,1145,52
2526.692131,60,13,1145,52
2526.693154,58,-3,1145,52
2526.694145,56,5,1145,52
2526.695165,56,68,1145,52
2526.696135,60,131,1145,52
2526.697135,65,124,1145,52
2526.698106,68,101,1145,52
2526.699118,70,108,1145,52
2526.700091,72,137,1145,52
2526.701122,73,121,1145,52
2526.702099,73,67,1145,52
2526.703092,70,22,1145,52
2526.704068,67,26,1145,52
2526.70507,65,41,1145,52
2526.706094,65,56,1145,52
2526.707062,64,58,1145,52
2526.708068,66,95,1145,52
2526.709142,73,174,1145,52
2526.710035,80,212,1145,52
2526.71104,87,190,1145,52
2526.712036,94,156,1145,52
2526.712996,101,130,1145,52
2526.713969,106,95,1145,52
2526.71501,105,62,1145,52
2526.716011,102,69,1145,52
2526.716993,102,126,1145,52
2526.718015,106,179,1145,52
2526.718975,110,188,1145,52
2526.720368,112,173,1145,52
2526.720949,113,133,1145,52
2526.721951,114,93,1145,52
2526.722984,118,107,1145,52
2526.723916,124,137,1145,52
2526.72491,131,195,1145,52
2526.72594,141,242,1145,52
2526.726917,148,211,1145,52
2526.727911,150,132,1145,52
2526.728905,147,102,1145,52
2526.729931,142,124,1145,52
2526.730923,139,124,1145,52
2526.735389,137,122,1145,52
2526.735403,137,135,1145,52
2526.735417,138,110,1145,52
2526.735432,138,54,1145,52
2526.735872,135,21,1145,52
2526.736845,132,57,1145,52
2526.737847,127,72,1145,52
2526.73883,119,33,1145,52
2526.739841,109,-21,1145,52
2526.740797,100,-49,1145,52
2526.741821,95,-12,1145,52
2526.742809,93,74,1145,52
2526.744028,93,140,1145,52
2526.744799,93,192,1145,52
2526.745782,92,215,1145,52
2526.746794,93,227,1145,52
2526.747782,97,228,1145,52
2526.748766,103,210,1145,52
2526.7498,105,164,1145,52
2526.750791,103,90,1145,52
2526.751754,101,77,1145,52
2526.752755,101,146,1145,52
2526.753717,106,200,1145,52
2526.754747,110,139,1145,52
2526.75572,111,30,1145,52
2526.75671,105,-46,1145,52
2526.757707,98,-79,1145,52
2526.758695,92,-92,1145,52
2526.759693,88,-93,1145,52
2526.760703,88,-57,1145,52
2526.761679,88,-8,1145,52
2526.762682,85,9,1145,52
2526.763666,79,20,1145,52
2526.764671,71,31,1145,52
2526.765701,61,17,1145,52
2526.766651,50,8,1145,52
2526.767637,40,31,1145,52
2526.768625,33,72,1145,52
2526.769651,28,62,1145,52
2526.770615,23,-7,1145,52
2526.771606,15,-81,1145,52
2526.772609,2,-122,1145,52
2526.773604,-13,-121,1145,52
2526.774595,-24,-77,1145,52
2526.775562,-27,-33,1145,52
2526.77663,-27,-45,1145,52
2526.77763,-26,-56,1145,52
2526.778575,-24,-48,1145,52
2526.779564,-21,-30,1145,52
2526.780538,-19,-19,1145,52
2526.781568,-19,-13,1145,52
2526.782515,-21,-20,1145,52
2526.783543,-23,-36,1145,52
2526.7846,-29,-73,1145,52
2526.785524,-33,-77,1145,52
2526.786518,-37,-73,1145,52
2526.787525,-43,-75,1145,52
2526.788528,-50,-70,1145,52
2526.789503,-56,-64,1145,52
2526.790513,-61,-98,1145,52
2526.791473,-62,-114,1145,52
2526.792464,-60,-84,1145,52
2526.793502,-56,-41,1145,52
2526.79446,-53,-11,1145,52
2526.79547,-52,-15,1145,52
2526.796458,-50,-10,1145,52
2526.79744,-47,14,1145,52
2526.798437,-44,10,1145,52
2526.799429,-43,-6,1145,52
2526.800417,-43,-26,1145,52
2526.801421,-45,-57,1145,52
2526.802438,-47,-59,1145,52
2526.8034,-47,-26,1145,52
2526.804388,-44,-11,1145,52
2526.805404,-42,-47,1145,52
2526.806392,-43,-99,1145,52
2526.807381,-44,-93,1145,52
2526.808366,-41,-2,1145,52
2526.809421,-34,83,1145,52
2526.810353,-25,66,1145,52
2526.811355,-17,63,1145,52
2526.812341,-10,49,1145,52
2526.813338,-9,-24,1145,52
2526.814342,-12,-78,1145,52
2526.815347,-17,-109,1145,52
2526.816318,-21,-92,1145,52
2526.817303,-25,-60,1145,52
2526.818317,-27,-32,1145,52
2526.819285,-27,-9,1145,52
2526.820286,-26,2,1145,52
2526.821287,-24,-27,1145,52
2526.822357,-24,-58,1145,52
2526.823269,-25,-43,1145,52
2526.824299,-26,-24,1145,52
2526.825256,-22,32,1145,52
2526.826251,-14,59,1145,52
2526.82725,-7,52,1145,52
2526.828234,-4,42,1145,52
2526.829227,-8,9,1145,52
2526.830283,-13,-24,1145,52
2526.831223,-16,-3,1145,52
2526.832262,-14,79,1145,52
2526.833212,-8,114,1145,52
2526.834192,1,114,1145,52
2526.83521,13,131,1145,52
2526.836208,26,174,1145,52
2526.83722,42,242,1145,52
2526.838185,58,296,1145,52
2526.83918,74,310,1145,52
2526.840184,88,289,1145,52
2526.841148,105,301,1145,52
2526.84215,125,343,1145,52
2526.843113,145,360,1145,52
2526.844137,165,382,1145,52
2526.845152,184,408,1145,52
2526.846112,203,432,1145,52
2526.84709,224,476,1145,52
2526.848112,249,539,1145,52
2526.849075,278,599,1145,52
2526.850083,310,619,1145,52
2526.851062,339,581,1145,52
2526.852057,362,536,1145,52
2526.853058,381,485,1145,52
2526.854039,394,380,1145,52
2526.855038,401,260,1145,52
2526.856031,401,173,1145,52
2526.857052,395,129,1145,52
2526.858028,386,110,1145,52
2526.859044,376,113,1145,52
2526.860042,368,128,1145,52
2526.861075,359,126,1145,52
2526.862006,347,101,1145,52
2526.862991,334,98,1145,52
2526.863989,320,111,1145,52
2526.864977,306,125,1145,52
2526.865974,292,144,1145,52
2526.866949,275,136,1145,52
2526.867979,253,115,1145,52
2526.868951,229,115,1145,52
2526.869937,203,91,1145,52
2526.870951,176,50,1145,52
2526.871944,152,49,1145,52
2526.872939,132,82,1145,52
2526.873907,118,100,1145,52
2526.874933,109,76,1145,52
2526.875891,102,33,1145,52
2526.876975,95,-13,1145,52
2526.877911,87,-37,1145,52
2526.878888,80,-23,1145,52
2526.879878,74,4,1145,52
2526.88088,69,27,1145,52
2526.881875,66,41,1145,52
2526.88289,64,55,1145,52
2526.883871,63,91,1145,52
2526.884893,62,110,1145,52
2526.885855,59,79,1145,52
2526.886833,54,36,1145,52
2526.887828,51,54,1145,52
2526.888825,48,62,1145,52
2526.889812,46,34,1145,52
2526.890811,43,-2,1145,52
2526.891789,41,8,1145,52
2526.89285,38,23,1145,52
2526.893799,34,12,1145,52
2526.894793,29,-20,1145,52
2526.896188,24,-54,1163,52
2526.896972,22,-51,1163,52
2526.897816,24,-16,1163,52
2526.8988,27,38,1163,52
2526.899758,31,101,1163,52
2526.900743,35,93,1163,52
2526.901749,35,44,1163,52
2526.902725,33,18,1163,52
2526.903801,30,23,1163,52
2526.904753,26,44,1163,52
2526.905708,24,29,1163,52
2526.906713,21,-17,1163,52
2526.907691,16,-57,1163,52
2526.908707,9,-76,1163,52
2526.909679,3,-71,1163,52
2526.910749,2,-34,1163,52
2526.911642,1,-8,1163,52
2526.912651,0,-16,1163,52
2526.91362,-1,-4,1163,52
2526.914653,2,57,1163,52
2526.915656,9,92,1163,52
2526.916637,16,73,1163,52
2526.917638,18,26,1163,52
2526.918614,14,-35,1163,52
2526.919634,6,-66,1163,52
2526.920603,0,-42,1163,52
2526.921638,-3,-8,1163,52
2526.922585,-4,-14,1163,52
2526.92361,-7,-41,1163,52
2526.924592,-10,-12,1163,52
2526.925581,-11,13,1163,52
2526.926567,-9,27,1163,52
2526.927554,-4,32,1163,52
2526.928546,0,30,1163,52
2526.929548,5,35,1163,52
2526.930531,9,48,1163,52
2526.931531,13,60,1163,52
2526.932541,18,88,1163,52
2526.933598,22,76,1163,52
2526.934504,20,18,1163,52
2526.935506,15,-14,1163,52
2526.936528,10,-27,1163,52
2526.937515,8,-12,1163,52
2526.938496,10,18,1163,52
2526.939534,15,22,1163,52
2526.940533,17,5,1163,52
2526.941588,17,-7,1163,52
2526.942487,17,-20,1163,52
2526.943492,17,-36,1163,52
2526.944453,16,-40,1163,52
2526.945467,14,-31,1163,52
2526.946445,11,-18,1163,52
2526.947428,10,12,1163,52
2526.948416,12,67,1163,52
2526.949453,16,101,1163,52
2526.950425,18,93,1163,52
2526.951419,19,79,1163,52
2526.952401,17,49,1163,52
2526.953373,14,29,1163,52
2526.954397,14,19,1163,52
2526.955395,16,13,1163,52
2526.956359,15,-34,1163,52
2526.957369,13,-66,1163,52
2526.958365,9,-55,1163,52
2526.959385,7,-22,1163,52
2526.960353,7,8,1163,52
2526.961335,8,8,1163,52
2526.962333,9,-6,1163,52
2526.96333,9,-31,1163,52
2526.964338,8,-48,1163,52
2526.965337,7,-50,1163,52
2526.966313,6,-51,1163,52
2526.967322,2,-59,1163,52
2526.968302,-2,-28,1163,52
2526.969287,-5,29,1163,52
2526.97028,-7,52,1163,52
2526.971259,-10,26,1163,52
2526.972255,-12,7,1163,52
2526.973243,-14,-5,1163,52
2526.974274,-15,-2,1163,52
2526.975234,-14,20,1163,52
2526.976236,-10,54,1163,52
2526.977227,-4,61,1163,52
2526.978234,0,42,1163,52
2526.97924,3,30,1163,52
2526.980193,5,57,1163,52
2526.98119,8,67,1163,52
2526.982192,11,43,1163,52
2526.983177,13,9,1163,52
2526.984153,15,-4,1163,52
2526.985194,17,-6,1163,52
2526.986172,19,-10,1163,52
2526.987174,21,-28,1163,52
2526.988235,20,-38,1163,52
2526.989159,17,-27,1163,52
2526.990169,13,-36,1163,52
2526.991166,8,-80,1163,52
2526.992149,2,-109,1163,52
2526.993116,-3,-120,1163,52
2526.994131,-7,-93,1163,52
2526.995114,-6,41,1163,52
2526.996106,0,182,1163,52
2526.997119,4,166,1163,52
2526.998086,7,96,1163,52
2526.999076,7,39,1163,52
2527.000087,5,6,1163,52
2527.001074,3,27,1163,52
2527.00209,4,65,1163,52
2527.00305,7,76,1163,52
2527.004026,11,63,1163,52
2527.005034,12,15,1163,52
2527.006025,10,-49,1163,52
2527.00704,8,-74,1163,52
2527.008047,9,-13,1163,52
2527.009003,13,61,1163,52
2527.010016,19,88,1163,52
2527.011001,26,53,1163,52
2527.011996,33,33,1163,52
2527.012973,40,23,1163,52
2527.013968,46,16,1163,52
2527.014956,46,37,1163,52
2527.015965,41,87,1163,52
2527.016949,38,101,1163,52
2527.017948,37,82,1163,52
2527.01894,38,59,1163,52
2527.019939,40,52,1163,52
2527.020939,42,70,1163,52
2527.021942,42,60,1163,52
2527.022936,39,13,1163,52
2527.023919,34,-39,1163,52
2527.024953,29,-72,1163,52
2527.025904,29,-56,1163,52
2527.026898,31,-34,1163,52
2527.027904,32,14,1163,52
2527.028881,34,84,1163,52
2527.029915,35,125,1163,52
2527.03089,40,135,1163,52
2527.031842,44,123,1163,52
2527.03284,49,123,1163,52
2527.03386,55,139,1163,52
2527.034831,59,121,1163,52
2527.035843,59,84,1163,52
2527.036819,56,38,1163,52
2527.037814,52,2,1163,52
2527.03881,50,14,1163,52
2527.039817,50,65,1163,52
2527.040793,52,92,1163,52
2527.0418,53,83,1163,52
2527.042781,54,48,1163,52
2527.043769,59,46,1163,52
2527.0448,65,49,1163,52
2527.045813,71,69,1163,52
2527.046757,78,97,1163,52
2527.047752,82,99,1163,52
2527.048732,84,118,1163,52
2527.049746,84,136,1163,52
2527.05073,83,113,1163,52
2527.051716,80,64,1163,52
2527.052714,76,37,1163,52
2527.053717,72,63,1163,52
2527.054805,71,97,1163,52
2527.055693,71,92,1163,52
2527.056711,73,72,1163,52
2527.057735,76,63,1163,52
2527.058673,77,29,1163,52
2527.059699,72,-19,1163,52
2527.060676,68,-1,1163,52
2527.061679,68,79,1163,52
2527.062631,72,141,1163,52
2527.06365,77,141,1163,52
2527.064652,82,143,1163,52
2527.065678,85,135,1163,52
2527.066617,85,91,1163,52
2527.067597,82,44,1163,52
2527.068634,77,12,1163,52
2527.069614,70,6,1163,52
2527.070582,65,20,1163,52
2527.071577,65,46,1163,52
2527.07259,66,65,1163,52
2527.073583,68,105,1163,52
2527.074569,71,165,1163,52
2527.075556,76,190,1163,52
2527.076549,81,168,1163,52
2527.077557,85,134,1163,52
2527.078528,89,110,1163,52
2527.079509,94,91,1163,52
2527.080513,99,97,1163,52
2527.081532,101,117,1163,52
2527.082493,101,134,1163,52
2527.083507,100,136,1163,52
2527.084484,100,127,1163,52
2527.085485,98,101,1163,52
2527.086493,97,70,1163,52
2527.087484,98,63,1163,52
2527.088458,101,69,1163,52
2527.089495,105,95,1163,52
2527.090578,112,162,1163,52
2527.091454,119,186,1163,52
2527.092498,123,139,1163,52
2527.093429,121,67,1163,52
2527.094427,114,31,1163,52
2527.095435,107,42,1163,52
2527.096411,102,76,1163,52
2527.097421,102,127,1163,52
2527.098385,106,184,1163,52
2527.09943,112,213,1163,52
2527.100363,116,180,1163,52
2527.101393,116,113,1163,52
2527.1024,112,61,1163,52
2527.10335,107,38,1163,52
2527.104375,103,43,1163,52
2527.105378,102,72,1163,52
2527.106334,104,110,1163,52
2527.107336,108,142,1163,52
2527.108316,112,156,1163,52
2527.109333,116,175,1163,52
2527.110349,117,185,1163,52
2527.111322,117,178,1163,52
2527.112315,118,159,1163,52
2527.11331,123,168,1163,52
2527.114282,129,148,1163,52
2527.115292,133,125,1163,52
2527.116291,137,160,1163,52
2527.117262,140,187,1163,52
2527.118258,140,178,1163,52
2527.119255,137,158,1163,52
2527.120258,134,120,1163,52
2527.121248,131,50,1163,52
2527.122408,128,11,1163,52
2527.123243,127,14,1163,52
2527.124223,125,9,1163,52
2527.125233,123,26,1163,52
2527.126247,120,56,1163,52
2527.127261,117,85,1163,52
2527.128275,116,131,1163,52
2527.129289,116,171,1163,52
2527.130192,115,158,1163,52
2527.131215,111,110,1163,52
2527.132182,106,56,1163,52
2527.133168,100,44,1163,52
2527.134133,96,79,1163,52
2527.135154,96,119,1163,52
2527.136141,93,97,1163,52
2527.137191,87,75,1163,52
2527.138149,83,96,1163,52
2527.139189,83,148,1163,52
2527.140148,86,180,1163,52
2527.141126,93,185,1163,52
2527.142146,100,168,1163,52
2527.143113,108,160,1163,52
2527.144092,114,128,1163,52
2527.145077,117,88,1163,52
2527.146071,116,48,1163,52
2527.147078,112,-1,1163,52
2527.148068,105,-5,1163,52
2527.149076,99,44,1163,52
2527.150096,95,83,1163,52
2527.151077,95,116,1163,52
2527.152014,100,139,1163,52
2527.153082,104,141,1163,52
2527.154034,107,136,1163,52
2527.15512,108,130,1163,52
2527.156032,108,108,1163,52
2527.157009,109,85,1163,52
2527.158033,108,73,1163,52
2527.158986,103,62,1163,52
2527.159988,98,64,1163,52
2527.160969,90,40,1163,52
2527.161966,83,14,1163,52
2527.162977,75,1,1163,52
2527.163969,69,21,1163,52
2527.164933,67,36,1163,52
2527.165944,65,7,1163,52
2527.166947,63,-34,1163,52
2527.167923,61,-42,1163,52
2527.169011,58,-30,1163,52
2527.169944,53,-7,1163,52
2527.170903,46,-32,1163,52
2527.17193,36,-56,1163,52
2527.172923,26,-57,1163,52
2527.17385,17,-46,1163,52
2527.174958,8,-40,1163,52
2527.175893,0,-57,1163,52
2527.176886,-8,-93,1163,52
2527.177867,-18,-132,1163,52
2527.178854,-29,-150,1163,52
2527.179847,-37,-94,1163,52
2527.180844,-41,-58,1163,52
2527.181835,-45,-50,1163,52
2527.182851,-47,-53,1163,52
2527.183895,-50,-36,1163,52
2527.184896,-53,-26,1163,52
2527.18629,-56,-38,1163,52
2527.18709,-57,-65,1163,52
2527.18842,-60,-93,1163,52
2527.188812,-62,-86,1163,52
2527.189844,-67,-95,1163,52
2527.1908,-71,-113,1163,52
2527.192026,-74,-122,1163,52
2527.192803,-79,-145,1163,52
2527.19378,-85,-180,1163,52
2527.194755,-93,-191,1163,52
2527.195774,-99,-177,1163,52
2527.196722,-103,-176,1163,52
2527.197726,-105,-180,1163,52
2527.198743,-106,-156,1163,52
2527.19996,-108,-131,1163,52
2527.201153,-110,-112,1163,52
2527.202306,-113,-106,1163,52
2527.202704,-116,-103,1163,52
2527.203686,-120,-117,1163,52
2527.20468,-126,-149,1163,52
2527.205674,-132,-153,1163,52
2527.206671,-133,-97,1163,52
2527.207655,-131,-56,1163,52
2527.208643,-130,-64,1163,52
2527.209674,-130,-96,1163,52
2527.21065,-133,-174,1163,52
2527.211648,-138,-219,1163,52
2527.212628,-140,-183,1163,52
2527.213628,-138,-146,1163,52
2527.214606,-135,-130,1163,52
2527.215625,-132,-112,1163,52
2527.216596,-128,-93,1163,52
2527.217592,-123,-74,1163,52
2527.218587,-119,-79,1163,52
2527.219591,-115,-65,1163,52
2527.220569,-112,-47,1163,52
2527.221603,-111,-74,1163,52
2527.222568,-113,-143,1163,52
2527.223554,-116,-195,1163,52
2527.224543,-118,-185,1163,52
2527.225551,-118,-142,1163,52
2527.226542,-117,-89,1163,52
2527.227513,-117,-56,1163,52
2527.228502,-117,-66,1163,52
2527.229512,-117,-90,1163,52
2527.230529,-113,-95,1163,52
2527.2315,-106,-85,1163,52
2527.232492,-102,-93,1163,52
2527.233513,-100,-110,1163,52
2527.234497,-99,-109,1163,52
2527.23549,-99,-109,1163,52
2527.236463,-100,-113,1163,52
2527.237519,-103,-131,1163,52
2527.238541,-107,-172,1163,52
2527.23948,-115,-217,1163,52
2527.240454,-124,-231,1163,52
2527.241456,-132,-222,1163,52
2527.242427,-135,-215,1163,52
2527.243441,-136,-202,1163,52
2527.244397,-134,-144,1163,52
2527.245403,-130,-69,1163,52
2527.246386,-126,-12,1163,52
2527.247406,-123,-4,1163,52
2527.248362,-122,-32,1163,52
2527.249396,-120,-58,1163,52
2527.250371,-120,-94,1163,52
2527.251364,-124,-166,1163,52
2527.252369,-131,-236,1163,52
2527.25335,-138,-236,1163,52
2527.25435,-142,-200,1163,52
2527.255331,-145,-161,1163,52
2527.256322,-146,-145,1163,52
2527.257339,-148,-160,1163,52
2527.258338,-148,-173,1163,52
2527.259293,-146,-180,1163,52
2527.260322,-143,-175,1163,52
2527.26128,-141,-182,1163,52
2527.262283,-140,-191,1163,52
2527.26331,-138,-165,1163,52
2527.264262,-139,-158,1163,52
2527.265261,-145,-183,1163,52
2527.26626,-153,-181,1163,52
2527.267236,-161,-161,1163,52
2527.268239,-168,-172,1163,52
2527.26928,-174,-178,1163,52
2527.270245,-178,-172,1163,52
2527.271248,-178,-169,1163,52
2527.272272,-174,-161,1163,52
2527.273225,-170,-143,1163,52
2527.274205,-165,-118,1163,52
2527.275189,-161,-64,1163,52
2527.276175,-154,-17,1163,52
2527.277176,-147,-16,1163,52
2527.278206,-139,-6,1163,52
2527.279265,-130,1,1163,52
2527.280359,-120,21,1163,52
2527.281142,-112,-17,1163,52
2527.282179,-106,-84,1163,52
2527.283145,-105,-145,1163,52
2527.284136,-106,-181,1163,52
2527.285129,-103,-117,1163,52
2527.286128,-96,-48,1163,52
2527.287102,-89,-19,1163,52
2527.288099,-81,-1,1163,52
2527.289112,-72,-3,1163,52
2527.290101,-66,-49,1163,52
2527.291079,-63,-113,1163,52
2527.292081,-62,-141,1163,52
2527.293067,-61,-130,1163,52
2527.294196,-62,-123,1163,52
2527.295346,-63,-93,1163,52
2527.296539,-64,-43,1163,52
2527.297087,-65,-33,1163,52
2527.298045,-67,-49,1163,52
2527.299045,-70,-55,1163,52
2527.300065,-74,-56,1163,52
2527.301035,-74,-24,1163,52
2527.302031,-71,-16,1163,52
2527.303066,-66,-47,1163,52
2527.304007,-62,-94,1163,52
2527.30503,-63,-133,1163,52
2527.30599,-68,-157,1163,52
2527.306975,-75,-162,1163,52
2527.307994,-81,-122,1163,52
2527.308998,-85,-78,1163,52
2527.310014,-85,-59,1163,52
2527.310941,-84,-77,1163,52
2527.311943,-82,-106,1163,52
2527.312921,-80,-102,1163,52
2527.313925,-79,-85,1163,52
2527.314946,-79,-102,1163,52
2527.315927,-84,-135,1163,52
2527.316932,-90,-151,1163,52
2527.317922,-93,-119,1163,52
2527.318913,-95,-100,1163,52
2527.3199,-98,-112,1163,52
2527.320886,-102,-93,1163,52
2527.321883,-104,-56,1163,52
2527.322867,-103,-39,1163,52
2527.323877,-101,-58,1163,52
2527.324859,-99,-94,1163,52
2527.325886,-99,-142,1163,52
2527.326873,-98,-157,1163,52
2527.327921,-98,-124,1163,52
2527.328843,-97,-58,1163,52
2527.329897,-94,19,1163,52
2527.330835,-88,35,1163,52
2527.331809,-81,26,1163,52
2527.332808,-76,2,1163,52
2527.333821,-74,-35,1163,52
2527.334792,-71,-46,1163,52
2527.335796,-66,-31,1163,52
2527.336778,-58,8,1163,52
2527.33777,-52,-7,1163,52
2527.338746,-50,-64,1163,52
2527.339791,-47,-54,1163,52
2527.340759,-43,-4,1163,52
2527.341759,-39,26,1163,52
2527.342761,-36,11,1163,52
2527.343726,-33,7,1163,52
2527.344718,-27,25,1163,52
2527.345706,-19,20,1163,52
2527.346722,-11,8,1163,52
2527.34771,-3,34,1163,52
2527.348693,2,67,1163,52
2527.349695,5,79,1163,52
2527.350695,8,79,1163,52
2527.351662,11,93,1163,52
2527.352682,16,96,1163,52
2527.353677,21,65,1163,52
2527.354698,26,52,1163,52
2527.355611,28,25,1163,52
2527.356648,26,-35,1163,52
2527.357652,24,-55,1163,52
2527.358642,26,-10,1163,52
2527.35962,31,29,1163,52
2527.36065,32,29,1163,52
2527.361612,31,-1,1163,52
2527.362602,29,-21,1163,52
2527.363585,29,-8,1163,52
2527.364585,27,-10,1163,52
2527.365587,22,-68,1163,52
2527.366572,16,-112,1163,52
2527.367576,8,-140,1163,52
2527.368563,-1,-121,1163,52
2527.369562,-8,-72,1163,52
2527.370553,-12,-3,1163,52
2527.371546,-15,37,1163,52
2527.372552,-17,51,1163,52
2527.373519,-17,76,1163,52
2527.374547,-18,22,1163,52
2527.375554,-22,-48,1163,52
2527.376517,-23,-62,1163,52
2527.377476,-24,-62,1163,52
2527.378493,-26,-58,1163,52
2527.379504,-29,-26,1163,52
2527.380476,-31,-19,1163,52
2527.381475,-33,-37,1163,52
2527.382455,-34,-30,1163,52
2527.383461,-33,-2,1163,52
2527.384468,-32,14,1163,52
2527.385434,-29,-15,1163,52
2527.386439,-27,-74,1163,52
2527.387433,-26,-109,1163,52
2527.388414,-24,-76,1163,52
2527.389432,-23,-64,1163,52
2527.390471,-27,-80,1163,52
2527.391419,-34,-98,1163,52
2527.392416,-41,-91,1163,52
2527.393412,-47,-48,1163,52
2527.394389,-51,-46,1163,52
2527.395381,-50,-42,1163,52
2527.396379,-47,7,1163,52
2527.397344,-42,31,1163,52
2527.39835,-39,5,1163,52
2527.399353,-38,-10,1163,52
2527.400352,-39,-31,1163,52
2527.40134,-39,-47,1163,52
2527.402328,-41,-64,1163,52
2527.403335,-45,-83,1163,52
2527.404318,-50,-81,1163,52
2527.405334,-51,-42,1163,52
2527.406339,-48,-12,1163,52
2527.407296,-43,-9,1163,52
2527.408298,-40,-15,1163,52
2527.409273,-38,-24,1163,52
2527.410261,-36,-30,1163,52
2527.411281,-32,-29,1163,52
2527.412272,-29,-33,1163,52
2527.41325,-29,-38,1163,52
2527.414243,-27,-15,1163,52
2527.415287,-26,-22,1163,52
2527.416233,-29,-59,1163,52
2527.417231,-36,-102,1163,52
2527.418229,-42,-113,1163,52
2527.419214,-46,-95,1163,52
2527.420218,-49,-77,1163,52
2527.421204,-50,-82,1163,52
2527.422207,-51,-83,1163,52
2527.423184,-51,-84,1163,52
2527.424179,-52,-89,1163,52
2527.425176,-54,-96,1163,52
2527.426184,-59,-99,1163,52
2527.427165,-62,-66,1163,52
2527.428128,-61,-8,1163,52
2527.429134,-61,-22,1163,52
2527.43014,-62,-54,1163,52
2527.431139,-64,-66,1163,52
2527.43214,-66,-79,1163,52
2527.433139,-67,-53,1163,52
2527.434142,-68,-33,1163,52
2527.435113,-68,-10,1163,52
2527.436101,-63,33,1163,52
2527.437341,-56,46,1163,52
2527.438098,-50,5,1163,52
2527.439076,-48,-72,1163,52
2527.440075,-50,-111,1163,52
2527.441078,-52,-118,1163,52
2527.442068,-54,-121,1163,52
2527.443062,-56,-134,1163,52
2527.44404,-60,-155,1163,52
2527.445036,-61,-120,1163,52
2527.446024,-58,-51,1163,52
2527.447021,-57,-28,1163,52
2527.448007,-58,-46,1163,52
2527.44909,-59,-42,1163,52
2527.449989,-59,-38,1163,52
2527.451009,-58,-53,1163,52
2527.452,-57,-52,1163,52
2527.45299,-56,-38,1163,52
2527.453974,-54,3,1163,52
2527.454962,-53,15,1163,52
2527.455959,-55,-1,1163,52
2527.45696,-58,-32,1163,52
2527.457923,-61,-37,1163,52
2527.458962,-58,-24,1163,52
2527.459934,-54,-25,1163,52
2527.460937,-50,-44,1163,52
2527.46196,-45,-23,1163,52
2527.462923,-37,28,1163,52
2527.463919,-28,33,1163,52
2527.464908,-21,13,1163,52
2527.465958,-19,-5,1163,52
2527.466872,-19,-36,1163,52
2527.467882,-20,-58,1163,52
2527.468872,-20,-43,1163,52
2527.46987,-18,-7,1163,52
2527.470859,-16,2,1163,52
2527.47188,-13,-3,1163,52
2527.472862,-13,-30,1163,52
2527.473854,-17,-89,1163,52
2527.474849,-24,-121,1163,52
2527.475837,-29,-105,1163,52
2527.476828,-30,-44,1163,52
2527.477815,-29,-13,1163,52
2527.478811,-29,-26,1163,52
2527.479808,-30,-44,1163,52
2527.480803,-30,-40,1163,52
2527.481792,-28,11,1163,52
2527.482781,-26,60,1163,52
2527.483778,-26,43,1163,52
2527.484783,-27,-12,1163,52
2527.485788,-29,-52,1163,52
2527.486776,-30,-54,1163,52
2527.487712,-30,-55,1163,52
2527.488754,-30,-45,1163,52
2527.489703,-34,-75,1163,52
2527.490731,-38,-93,1163,52
2527.491735,-43,-88,1163,52
2527.492738,-45,-77,1163,52
2527.493754,-45,-83,1163,52
2527.494686,-43,-91,1163,52
2527.495685,-42,-91,1163,52
2527.496687,-45,-87,1163,52
2527.497679,-48,-71,1163,52
2527.49869,-47,-21,1163,52
2527.499672,-44,14,1163,52
2527.500662,-42,17,1163,52
2527.501633,-41,19,1163,52
2527.502663,-44,10,1163,52
2527.503679,-46,-6,1163,52
2527.504641,-45,0,1163,52
2527.505653,-44,-15,1163,52
2527.506631,-44,-61,1163,52
2527.507611,-45,-75,1163,52
2527.508613,-44,-23,1163,52
2527.509593,-38,42,1163,52
2527.510587,-29,90,1163,52
2527.511603,-20,99,1163,52
2527.512615,-13,53,1163,52
2527.513591,-7,34,1163,52
2527.514565,-1,40,1163,52
2527.515566,4,20,1163,52
2527.516577,8,-15,1163,52
2527.517546,10,-14,1163,52
2527.518537,11,-3,1163,52
2527.519552,11,2,1163,52
2527.520559,11,23,1163,52
2527.521508,14,75,1163,52
2527.522522,17,83,1163,52
2527.523523,21,67,1163,52
2527.524507,22,24,1163,52
2527.525498,23,-6,1163,52
2527.526491,25,-18,1163,52
2527.527487,26,-45,1163,52
2527.528469,25,-56,1163,52
2527.529464,19,-68,1163,52
2527.530473,11,-79,1163,52
2527.531454,3,-60,1163,52
2527.532467,-1,-51,1163,52
2527.533463,-6,-66,1163,52
2527.534427,-12,-63,1163,52
2527.535453,-12,6,1163,52
2527.536444,-6,110,1163,52
2527.537458,1,135,1163,52
2527.538429,5,91,1163,52
2527.539397,9,76,1163,52
2527.54042,10,47,1163,52
2527.541417,7,20,1163,52
2527.542415,5,32,1163,52
2527.543407,4,53,1163,52
2527.544386,5,37,1163,52
2527.545359,6,15,1163,52
2527.546372,6,-7,1163,52
2527.547356,9,9,1163,52
2527.548394,13,17,1163,52
2527.549335,17,15,1163,52
2527.550352,21,5,1163,52
2527.551325,24,-7,1163,52
2527.552366,27,7,1163,52
2527.553333,32,47,1163,52
2527.554318,40,89,1163,52
2527.555309,44,85,1163,52
2527.556313,40,41,1163,52
2527.557275,34,-1,1163,52
2527.558298,28,-25,1163,52
2527.55925,24,-7,1163,52
2527.560247,23,25,1163,52
2527.561264,22,4,1163,52
2527.562255,19,-24,1163,52
2527.563339,15,-18,1163,52
2527.564282,13,-3,1163,52
2527.565244,13,13,1163,52
2527.56623,13,-3,1163,52
2527.567231,13,-7,1163,52
2527.568213,11,-12,1163,52
2527.569215,10,-15,1163,52
2527.570204,9,0,1163,52
2527.5712,8,-29,1163,52
2527.572193,5,-69,1163,52
2527.573217,-2,-95,1163,52
2527.574294,-11,-103,1163,52
2527.575184,-19,-79,1163,52
2527.57619,-24,-45,1163,52
2527.577158,-25,-24,1163,52
2527.578134,-22,26,1163,52
2527.57914,-19,67,1163,52
2527.580125,-18,42,1163,52
2527.581122,-19,-18,1163,52
2527.582125,-19,-27,1163,52
2527.583108,-17,26,1163,52
2527.584106,-13,63,1163,52
2527.585117,-11,62,1163,52
2527.586094,-8,62,1163,52
2527.58716,-5,53,1163,52
2527.588079,-1,60,1163,52
2527.589072,3,84,1163,52
2527.590055,7,89,1163,52
2527.591097,12,58,1163,52
2527.592067,15,6,1163,52
2527.59306,19,-19,1163,52
2527.594131,22,-39,1163,52
2527.595031,24,-50,1163,52
2527.596027,24,-45,1163,52
2527.597006,24,-21,1163,52
2527.598006,22,-14,1163,52
2527.598997,20,23,1163,52
2527.599997,21,74,1163,52
2527.600999,26,67,1163,52
2527.602024,29,38,1163,52
2527.602993,29,25,1163,52
2527.603997,26,4,1163,52
2527.605061,22,-20,1163,52
2527.605957,17,-28,1163,52
2527.606959,12,-51,1163,52
2527.607946,6,-62,1163,52
2527.608935,0,-45,1163,52
2527.609933,-5,-15,1163,52
2527.61092,-7,15,1163,52
2527.611926,-6,26,1163,52
2527.612909,-2,62,1163,52
2527.613919,5,125,1163,52
2527.614918,14,128,1163,52
2527.615906,21,93,1163,52
2527.616887,25,54,1163,52
2527.617865,28,52,1163,52
2527.618877,29,45,1163,52
2527.619896,26,11,1163,52
2527.620886,23,3,1163,52
2527.621882,24,48,1163,52
2527.622855,26,78,1163,52
2527.623862,29,55,1163,52
2527.624839,32,44,1163,52
2527.625817,36,63,1163,52
2527.626824,44,99,1163,52
2527.627831,52,96,1163,52
2527.628818,57,58,1163,52
2527.629828,57,-7,1163,52
2527.63079,54,-47,1163,52
2527.631816,52,-20,1163,52
2527.632801,50,19,1163,52
2527.633788,45,27,1163,52
2527.634785,38,-7,1163,52
2527.635771,32,-39,1163,52
2527.636742,27,-48,1163,52
2527.637765,23,-27,1163,52
2527.63876,20,-16,1163,52
2527.639765,18,-28,1163,52
2527.640777,17,-15,1163,52
2527.64173,13,-20,1163,52
2527.642748,8,-30,1163,52
2527.643733,5,-8,1163,52
2527.644724,4,32,1163,52
2527.645703,2,18,1163,52
2527.646685,-3,-22,1163,52
2527.647676,-10,-47,1163,52
2527.648723,-16,-63,1163,52
2527.649678,-20,-83,1163,52
2527.650657,-22,-90,1163,52
2527.651664,-25,-80,1163,52
2527.652678,-29,-53,1163,52
2527.653664,-30,16,1163,52
2527.654637,-25,74,1163,52
2527.65564,-20,67,1163,52
2527.65662,-16,31,1163,52
2527.657646,-14,17,1163,52
2527.658597,-12,31,1163,52
2527.659627,-8,38,1163,52
2527.660624,-6,41,1163,52
2527.661634,-4,19,1163,52
2527.662584,-4,-38,1163,52
2527.663579,-9,-111,1163,52
2527.664611,-16,-114,1163,52
2527.665574,-20,-48,1163,52
2527.666551,-18,8,1163,52
2527.667552,-15,23,1163,52
2527.668569,-9,49,1163,52
2527.669561,-3,43,1163,52
2527.670539,0,-10,1163,52
2527.671539,2,-47,1163,52
2527.672527,2,-48,1163,52
2527.673722,0,-45,1163,52
2527.674518,-6,-46,1163,52
2527.6755,-12,-44,1163,52
2527.676488,-14,-15,1163,52
2527.677498,-13,37,1163,52
2527.678489,-12,44,1163,52
2527.67953,-14,12,1163,52
2527.680488,-17,-26,1163,52
2527.681472,-21,-68,1163,52
2527.682472,-23,-64,1163,52
2527.683455,-20,-52,1163,52
2527.684432,-17,-66,1163,52
2527.685418,-17,-42,1163,52
2527.686409,-18,-5,1163,52
2527.687448,-18,6,1163,52
2527.688482,-22,-17,1163,52
2527.689446,-26,-36,1163,52
2527.690417,-27,-28,1163,52
2527.691393,-24,-6,1163,52
2527.692399,-22,5,1163,52
2527.693396,-21,-34,1163,52
2527.694376,-22,-58,1163,52
2527.695367,-22,-53,1163,52
2527.696368,-25,-73,1163,52
2527.697346,-30,-65,1163,52
2527.698339,-35,-44,1163,52
2527.699346,-38,-44,1163,52
2527.70033,-39,-57,1163,52
2527.70134,-38,-50,1163,52
2527.702362,-38,-54,1163,52
2527.703324,-37,-43,1163,52
2527.704298,-35,-16,1163,52
2527.705311,-33,-11,1163,52
2527.706294,-34,-21,1163,52
2527.707286,-37,-46,1163,52
2527.708261,-38,-49,1163,52
2527.709287,-36,-2,1163,52
2527.710288,-32,59,1163,52
2527.711243,-28,75,1163,52
2527.712265,-24,83,1163,52
2527.713277,-17,108,1163,52
2527.714308,-8,117,1163,52
2527.715234,-2,83,1163,52
2527.716238,4,52,1163,52
2527.71723,9,32,1163,52
2527.718211,11,2,1163,52
2527.719215,12,-22,1163,52
2527.720194,14,-8,1163,52
2527.721236,17,6,1163,52
2527.72221,18,-35,1163,52
2527.723182,15,-105,1163,52
2527.724165,8,-164,1163,52
2527.725152,0,-157,1163,52
2527.726145,-3,-114,1163,52
2527.727148,-5,-74,1163,52
2527.728131,-2,-4,1163,52
2527.729152,0,47,1163,52
2527.730119,-1,31,1163,52
2527.731135,-5,-3,1163,52
2527.732142,-10,-2,1163,52
2527.733119,-15,6,1163,52
2527.734125,-22,-26,1163,52
2527.735092,-27,-31,1163,52
2527.736127,-30,-4,1163,52
2527.737093,-32,-3,1163,52
2527.738078,-34,-38,1163,52
2527.739051,-37,-77,1163,52
2527.740083,-42,-104,1163,52
2527.741117,-47,-99,1163,52
2527.742094,-49,-83,1163,52
2527.74308,-47,-69,1163,52
2527.744079,-41,-37,1163,52
2527.745044,-34,-23,1163,52
2527.746042,-29,-15,1163,52
2527.747047,-25,18,1163,52
2527.748033,-22,50,1163,52
2527.749031,-22,48,1163,52
2527.750006,-22,29,1163,52
2527.750999,-23,-14,1163,52
2527.751986,-23,-10,1163,52
2527.75303,-22,25,1163,52
2527.753996,-19,31,1163,52
2527.754974,-19,-21,1163,52
2527.755977,-21,-38,1163,52
2527.756967,-20,6,1163,52
2527.757973,-17,20,1163,52
2527.758974,-15,-25,1163,52
2527.759976,-12,-59,1163,52
2527.760955,-10,-43,1163,52
2527.761938,-5,8,1163,52
2527.76293,-2,-14,1163,52
2527.763944,-3,-46,1163,52
2527.764919,-3,-34,1163,52
2527.765901,-2,16,1163,52
2527.766874,0,60,1163,52
2527.767902,1,88,1163,52
2527.768861,4,103,1163,52
2527.769878,8,111,1163,52
2527.770882,13,79,1163,52
2527.771908,12,-32,1163,52
2527.772871,4,-122,1163,52
2527.773873,-3,-133,1163,52
2527.774833,-6,-88,1163,52
2527.775832,-6,-31,1163,52
2527.776829,-5,17,1163,52
2527.777816,-4,54,1163,52
2527.778781,0,67,1163,52
2527.779806,4,27,1163,52
2527.780805,5,-26,1163,52
2527.781805,4,-26,1163,52
2527.782782,4,-9,1163,52
2527.783774,6,-9,1163,52
2527.784785,8,5,1163,52
2527.785766,8,15,1163,52
2527.786736,5,16,1163,52
2527.787754,2,27,1163,52
2527.788735,0,30,1163,52
2527.789728,-6,5,1163,52
2527.790727,-12,-42,1163,52
2527.791743,-12,-34,1163,52
2527.792694,-7,-21,1163,52
2527.79369,-3,-47,1163,52
2527.794686,-1,-59,1163,52
2527.795707,-1,-36,1163,52
2527.79669,-2,6,1163,52
2527.797671,-2,59,1163,52
2527.798705,0,92,1163,52
2527.799655,2,102,1163,52
2527.800649,9,98,1163,52
2527.801656,13,60,1163,52
2527.802647,13,-14,1163,52
2527.803661,8,-97,1163,52
2527.804617,1,-131,1163,52
2527.805615,-3,-87,1163,52
2527.806648,-6,-51,1163,52
2527.8076,-9,-33,1163,52
2527.808599,-12,-38,1163,52
2527.80959,-14,-22,1163,52
2527.810589,-12,-3,1163,52
2527.81158,-9,22,1163,52
2527.812573,-4,79,1163,52
2527.813557,4,130,1163,52
2527.814577,14,142,1163,52
2527.815537,21,97,1163,52
2527.816541,23,53,1163,52
2527.817534,21,16,1163,52
2527.818532,16,-5,1163,52
2527.819497,11,-2,1163,52
2527.820535,7,23,1163,52
2527.821508,7,51,1163,52
2527.822498,10,52,1163,52
2527.823509,15,-2,1163,52
2527.824501,19,-47,1163,52
2527.825477,23,-2,1163,52
2527.826476,28,58,1163,52
2527.827479,31,26,1163,52
2527.828451,34,7,1163,52
2527.829456,36,15,1163,52
2527.830452,36,16,1163,52
2527.831437,37,23,1163,52
2527.832439,33,16,1163,52
2527.833418,27,-3,1163,52
2527.834403,19,-9,1163,52
2527.835423,14,-14,1163,52
2527.836393,10,-19,1163,52
2527.837429,8,-23,1163,52
2527.838394,10,24,1163,52
2527.8394,13,64,1163,52
2527.840399,15,62,1163,52
2527.841357,15,56,1163,52
2527.842364,16,67,1163,52
2527.843374,22,114,1163,52
2527.844348,29,96,1163,52
2527.845374,31,48,1163,52
2527.846341,29,16,1163,52
2527.84734,29,33,1163,52
2527.848402,32,65,1163,52
2527.84932,35,75,1163,52
2527.850318,38,71,1163,52
2527.851313,40,70,1163,52
2527.852284,44,84,1163,52
2527.853345,48,88,1163,52
2527.85429,51,52,1163,52
2527.85531,53,19,1163,52
2527.856274,57,54,1163,52
2527.85726,63,104,1163,52
2527.858299,68,130,1163,52
2527.859267,73,165,1163,52
2527.860252,79,163,1163,52
2527.861234,82,128,1163,52
2527.862226,84,97,1163,52
2527.863224,82,86,1163,52
2527.864222,83,120,1163,52
2527.865206,88,141,1163,52
2527.8662,91,81,1163,52
2527.867233,91,23,1163,52
2527.868196,89,26,1163,52
2527.869208,89,74,1163,52
2527.870205,91,112,1163,52
2527.87117,93,114,1163,52
2527.872186,93,82,1163,52
2527.873169,91,45,1163,52
2527.874218,89,20,1163,52
2527.875136,89,11,1163,52
2527.876124,87,25,1163,52
2527.877114,85,57,1163,52
2527.878129,81,52,1163,52
2527.879116,75,45,1163,52
2527.880112,70,62,1163,52
2527.881095,67,64,1163,52
2527.882093,64,43,1163,52
2527.88308,63,55,1163,52
2527.884068,60,62,1163,52
2527.885063,55,51,1163,52
2527.88607,53,37,1163,52
2527.887113,54,43,1163,52
2527.888038,56,67,1163,52
2527.889045,58,105,1163,52
2527.890069,56,87,1163,52
2527.891024,53,56,1163,52
2527.892019,55,104,1163,52
2527.893054,60,155,1163,52
2527.894002,66,135,1163,52
2527.894988,69,84,1163,52
2527.895977,70,32,1163,52
2527.896984,69,31,1163,52
2527.897992,68,39,1163,52
2527.898989,65,-10,1163,52
2527.900004,58,-84,1163,52
2527.900967,47,-143,1163,52
2527.90197,39,-129,1163,52
2527.902941,32,-87,1163,52
2527.903951,27,-30,1163,52
2527.904915,24,-14,1163,52
2527.905926,21,-23,1163,52
2527.906923,19,5,1163,52
2527.907927,16,4,1163,52
2527.908925,11,16,1163,52
2527.909894,7,4,1163,52
2527.910909,3,-29,1163,52
2527.911891,-1,-2,1163,52
2527.912877,-7,41,1163,52
2527.913884,-11,49,1163,52
2527.91487,-16,-2,1163,52
2527.915897,-21,-82,1163,52
2527.916862,-30,-149,1163,52
2527.917888,-41,-179,1163,52
2527.91889,-48,-152,1163,52
2527.919877,-51,-141,1163,52
2527.92084,-51,-142,1163,52
2527.921863,-51,-121,1163,52
2527.922845,-52,-108,1163,52
2527.923832,-56,-111,1163,52
2527.924843,-62,-138,1163,52
2527.925802,-69,-156,1163,52
2527.926774,-76,-137,1163,52
2527.927758,-81,-101,1163,52
2527.928776,-85,-62,1163,52
2527.929792,-87,-36,1163,52
2527.93076,-85,13,1163,52
2527.931766,-82,50,1163,52
2527.932802,-83,21,1163,52
2527.933783,-88,-43,1163,52
2527.93473,-92,-91,1163,52
2527.935738,-94,-121,1163,52
2527.936715,-93,-115,1163,52
2527.937692,-87,-71,1163,52
2527.938721,-82,-54,1163,52
2527.939798,-79,-80,1163,52
2527.940705,-77,-91,1163,52
2527.941709,-75,-92,1163,52
2527.942691,-75,-97,1163,52
2527.943682,-73,-83,1163,52
2527.944674,-70,-66,1163,52
2527.945705,-65,-61,1163,52
2527.946655,-61,-57,1163,52
2527.947658,-58,-47,1163,52
2527.948669,-57,-32,1163,52
2527.949641,-56,-31,1163,52
2527.950634,-60,-57,1163,52
2527.951648,-66,-64,1163,52
2527.952715,-70,-72,1163,52
2527.9536,-73,-94,1163,52
2527.954585,-74,-124,1163,52
2527.955612,-75,-130,1163,52
2527.956604,-76,-137,1163,52
2527.957611,-79,-137,1163,52
2527.958593,-84,-142,1163,52
2527.959621,-87,-150,1163,52
2527.960582,-90,-151,1163,52
2527.961572,-93,-149,1163,52
2527.962572,-94,-122,1163,52
2527.963583,-92,-36,1163,52
2527.964518,-87,32,1163,52
2527.96556,-82,37,1163,52
2527.966534,-78,24,1163,52
2527.967523,-75,7,1163,52
2527.968535,-75,-17,1163,52
2527.969512,-75,-33,1163,52
2527.970603,-75,-57,1163,52
2527.971514,-76,-91,1163,52
2527.972511,-78,-117,1163,52
2527.973475,-81,-150,1163,52
2527.974457,-83,-158,1163,52
2527.975485,-80,-75,1163,52
2527.976452,-73,-2,1163,52
2527.977464,-67,-17,1163,52
2527.978435,-61,-15,1163,52
2527.979454,-52,25,1163,52
2527.980426,-42,62,1163,52
2527.981429,-30,80,1163,52
2527.982415,-19,92,1163,52
2527.983417,-12,112,1163,52
2527.984442,-7,129,1163,52
2527.98541,-2,148,1163,52
2527.986366,4,166,1163,52
2527.987407,14,192,1163,52
2527.98845,26,226,1163,52
2527.989367,40,258,1163,52
2527.990364,59,316,1163,52
2527.991384,83,393,1163,52
2527.992385,114,488,1163,52
2527.993391,148,541,1163,52
2527.99437,183,541,1163,52
2527.995387,213,525,1163,52
2527.996321,238,491,1163,52
2527.997316,262,471,1163,52
2527.998313,284,433,1163,52
2527.999321,301,347,1163,52
2528.000307,311,266,1163,52
2528.001284,318,217,1163,52
2528.002413,322,180,1163,52
2528.003278,324,144,1163,52
2528.004274,322,87,1163,52
2528.005292,316,41,1163,52
2528.006272,308,7,1163,52
2528.007255,296,-47,1163,52
2528.008251,281,-89,1163,52
2528.009269,264,-76,1163,52
2528.010281,246,-45,1163,52
2528.011251,225,-23,1163,52
2528.012239,199,-38,1163,52
2528.013232,170,-41,1163,52
2528.014214,141,-24,1163,52
2528.015194,114,-31,1163,52
2528.016198,87,-37,1163,52
2528.017208,62,-35,1163,52
2528.018208,38,-35,1163,52
2528.019234,19,-40,1163,52
2528.020193,1,-93,1163,52
2528.021184,-17,-159,1163,52
2528.022152,-35,-176,1163,52
2528.023143,-50,-173,1163,52
2528.024131,-64,-193,1163,52
2528.025169,-77,-219,1163,52
2528.026155,-89,-221,1163,52
2528.027129,-96,-189,1163,52
2528.028137,-100,-163,1163,52
2528.029126,-102,-127,1163,52
2528.030102,-102,-51,1163,52
2528.031106,-100,23,1163,52
2528.0321,-97,19,1163,52
2528.033087,-97,-39,1163,52
2528.03409,-100,-77,1163,52
2528.035083,-103,-85,1163,52
2528.036087,-105,-92,1163,52
2528.037111,-108,-84,1163,52
2528.038084,-109,-68,1163,52
2528.039058,-111,-80,1163,52
2528.040042,-112,-100,1163,52
2528.041083,-110,-121,1163,52
2528.042337,-108,-140,1154,52
2528.043214,-106,-131,1154,52
2528.044067,-102,-108,1154,52
2528.04502,-97,-116,1154,52
2528.046014,-91,-108,1154,52
2528.047007,-87,-108,1154,52
2528.047996,-84,-112,1154,52
2528.049034,-83,-106,1154,52
2528.049966,-86,-106,1154,52
2528.051003,-93,-110,1154,52
2528.051983,-99,-114,1154,52
2528.052974,-103,-110,1154,52
2528.053956,-104,-97,1154,52
2528.054943,-104,-84,1154,52
2528.055933,-104,-92,1154,52
2528.056947,-103,-68,1154,52
2528.057923,-102,-40,1154,52
2528.058932,-99,-34,1154,52
2528.059928,-97,-57,1154,52
2528.060892,-96,-95,1154,52
2528.061909,-93,-81,1154,52
2528.062889,-89,-63,1154,52
2528.06392,-88,-73,1154,52
2528.064879,-85,-69,1154,52
2528.06588,-83,-58,1154,52
2528.066861,-80,-54,1154,52
2528.067832,-77,-57,1154,52
2528.068887,-77,-94,1154,52
2528.069876,-77,-118,1154,52
2528.070902,-77,-102,1154,52
2528.071853,-75,-82,1154,52
2528.072831,-73,-59,1154,52
2528.073853,-71,-64,1154,52
2528.074831,-73,-116,1154,52
2528.075839,-75,-145,1154,52
2528.07682,-80,-151,1154,52
2528.077802,-84,-136,1154,52
2528.07877,-87,-93,1154,52
2528.079811,-87,-50,1154,52
2528.080762,-81,18,1154,52
2528.081877,-75,56,1154,52
2528.082744,-71,6,1154,52
2528.083758,-72,-84,1154,52
2528.084752,-74,-120,1154,52
2528.085706,-77,-105,1154,52
2528.086742,-79,-102,1154,52
2528.087743,-81,-93,1154,52
2528.088725,-77,-22,1154,52
2528.089743,-72,-11,1154,52
2528.0907,-72,-99,1154,52
2528.091699,-75,-147,1154,52
2528.092698,-77,-93,1154,52
2528.093688,-76,-46,1154,52
2528.094666,-72,-41,1154,52
2528.095673,-65,-14,1154,52
2528.096641,-57,16,1154,52
2528.097648,-50,1,1154,52
2528.098734,-47,-28,1154,52
2528.099656,-47,-54,1154,52
2528.100644,-51,-62,1154,52
2528.101635,-57,-63,1154,52
2528.102637,-61,-72,1154,52
2528.103622,-62,-95,1154,52
2528.104611,-61,-104,1154,52
2528.105617,-60,-83,1154,52
2528.106614,-57,-47,1154,52
2528.107593,-54,-33,1154,52
2528.10864,-55,-39,1154,52
2528.1096,-57,-50,1154,52
2528.110588,-55,-71,1154,52
2528.111591,-52,-91,1154,52
2528.112562,-53,-103,1154,52
2528.113558,-54,-76,1154,52
2528.114552,-54,-26,1154,52
2528.115547,-55,-36,1154,52
2528.116519,-59,-77,1154,52
2528.117513,-64,-94,1154,52
2528.118515,-67,-76,1154,52
2528.119532,-67,-63,1154,52
2528.120499,-68,-72,1154,52
2528.121543,-69,-96,1154,52
2528.12248,-71,-106,1154,52
2528.12348,-70,-82,1154,52
2528.124473,-68,-64,1154,52
2528.125496,-67,-61,1154,52
2528.12648,-69,-82,1154,52
2528.127462,-74,-126,1154,52
2528.128428,-79,-139,1154,52
2528.129439,-82,-113,1154,52
2528.130434,-82,-71,1154,52
2528.13143,-79,-42,1154,52
2528.132422,-75,-23,1154,52
2528.133447,-73,-37,1154,52
2528.134406,-75,-58,1154,52
2528.135431,-78,-98,1154,52
2528.136445,-81,-140,1154,52
2528.137457,-83,-133,1154,52
2528.138403,-84,-103,1154,52
2528.13939,-85,-66,1154,52
2528.140373,-84,-50,1154,52
2528.14136,-81,-47,1154,52
2528.142357,-79,-56,1154,52
2528.143359,-78,-76,1154,52
2528.144323,-78,-61,1154,52
2528.145347,-76,-19,1154,52
2528.146329,-70,32,1154,52
2528.147337,-62,47,1154,52
2528.148307,-53,32,1154,52
2528.149325,-47,6,1154,52
2528.150314,-45,-23,1154,52
2528.151288,-46,-74,1154,52
2528.152304,-51,-123,1154,52
2528.153318,-56,-124,1154,52
2528.154285,-57,-93,1154,52
2528.155268,-56,-70,1154,52
2528.156297,-54,-91,1154,52
2528.157286,-54,-134,1154,52
2528.1583,-55,-125,1154,52
2528.159259,-55,-79,1154,52
2528.16025,-56,-59,1154,52
2528.161332,-57,-62,1154,52
2528.162241,-57,-70,1154,52
2528.163206,-56,-53,1154,52
2528.16421,-53,-3,1154,52
2528.165205,-51,22,1154,52
2528.16619,-50,48,1154,52
2528.167208,-50,63,1154,52
2528.168191,-49,46,1154,52
2528.169184,-49,6,1154,52
2528.170186,-49,-25,1154,52
2528.171157,-48,-62,1154,52
2528.172155,-46,-81,1154,52
2528.173142,-42,-33,1154,52
2528.174154,-36,27,1154,52
2528.175126,-31,30,1154,52
2528.176147,-26,-2,1154,52
2528.177107,-21,-36,1154,52
2528.178115,-17,-41,1154,52
2528.179108,-13,2,1154,52
2528.180104,-8,42,1154,52
2528.181103,-3,39,1154,52
2528.182106,0,19,1154,52
2528.18308,4,26,1154,52
2528.184093,7,47,1154,52
2528.185121,10,79,1154,52
2528.186071,13,119,1154,52
2528.187104,15,97,1154,52
2528.188103,14,23,1154,52
2528.189025,12,-33,1154,52
2528.190052,11,-45,1154,52
2528.191068,11,-55,1154,52
2528.192832,10,-96,1154,52
2528.193062,8,-75,1154,52
2528.194018,7,0,1154,52
2528.195012,7,25,1154,52
2528.196008,6,-15,1154,52
2528.196987,7,-19,1154,52
2528.197987,10,19,1154,52
2528.198971,13,54,1154,52
2528.199974,13,42,1154,52
2528.200963,11,11,1154,52
2528.201972,10,-3,1154,52
2528.20297,8,-22,1154,52
2528.203942,4,-24,1154,52
2528.204945,0,-10,1154,52
2528.205952,-5,-1,1154,52
2528.207109,-11,-7,1154,52
2528.208617,-13,-33,1154,52
2528.209145,-15,-58,1154,52
2528.210869,-14,-41,1154,52
2528.210923,-14,-38,1154,52
2528.211901,-10,-28,1154,52
2528.212875,-8,-25,1154,52
2528.213851,-9,-23,1154,52
2528.214861,-11,-13,1154,52
2528.215877,-11,-15,1154,52
2528.216869,-12,-51,1154,52
2528.21787,-18,-87,1154,52
2528.218852,-22,-42,1154,52
2528.219844,-24,10,1154,52
2528.22086,-24,9,1154,52
2528.221831,-23,21,1154,52
2528.222807,-19,60,1154,52
2528.223813,-14,81,1154,52
2528.224796,-9,87,1154,52
2528.225783,-4,96,1154,52
2528.2268,0,87,1154,52
2528.2278,5,65,1154,52
2528.228778,11,59,1154,52
2528.229786,15,40,1154,52
2528.230773,18,27,1154,52
2528.231756,20,16,1154,52
2528.232753,22,5,1154,52
2528.233754,24,16,1154,52
2528.23473,24,-3,1154,52
2528.23576,23,-34,1154,52
2528.236723,24,-31,1154,52
2528.237761,28,-19,1154,52
2528.238725,28,-26,1154,52
2528.239741,25,-55,1154,52
2528.240711,20,-88,1154,52
2528.241705,17,-50,1154,52
2528.24269,15,19,1154,52
2528.24368,14,73,1154,52
2528.244663,15,95,1154,52
2528.245672,14,84,1154,52
2528.246656,13,63,1154,52
2528.247651,11,30,1154,52
2528.248641,10,33,1154,52
2528.249645,11,65,1154,52
2528.250652,13,68,1154,52
2528.251616,14,37,1154,52
2528.252641,13,-19,1154,52
2528.253616,9,-63,1154,52
2528.254617,5,-73,1154,52
2528.255584,5,-37,1154,52
2528.256619,8,22,1154,52
2528.257593,12,70,1154,52
2528.258587,17,73,1154,52
2528.25961,23,50,1154,52
2528.260579,28,18,1154,52
2528.261562,31,7,1154,52
2528.262556,31,25,1154,52
2528.263547,30,51,1154,52
2528.264526,28,61,1154,52
2528.265543,27,68,1154,52
2528.266531,27,51,1154,52
2528.267529,27,26,1154,52
2528.26853,27,48,1154,52
2528.269523,29,104,1154,52
2528.270531,31,109,1154,52
2528.271534,32,43,1154,52
2528.272525,32,-8,1154,52
2528.273494,36,6,1154,52
2528.274497,42,49,1154,52
2528.275499,47,70,1154,52
2528.27647,48,35,1154,52
2528.277472,43,-35,1154,52
2528.278451,35,-84,1154,52
2528.279455,30,-51,1154,52
2528.280436,31,45,1154,52
2528.281433,36,101,1154,52
2528.282468,39,82,1154,52
2528.283431,39,53,1154,52
2528.284437,38,43,1154,52
2528.285662,35,4,1154,52
2528.287117,32,-6,1154,52
2528.28775,31,18,1154,52
2528.289192,32,58,1154,52
2528.289391,31,90,1154,52
2528.290367,31,97,1154,52
2528.29138,32,79,1154,52
2528.292367,36,67,1154,52
2528.29336,39,55,1154,52
2528.294366,38,39,1154,52
2528.295336,34,-2,1154,52
2528.296332,31,-27,1154,52
2528.297343,33,-3,1154,52
2528.298318,39,33,1154,52
2528.299333,44,45,1154,52
2528.30032,43,33,1154,52
2528.301299,40,48,1154,52
2528.302682,40,76,1154,52
2528.303413,42,102,1154,52
2528.304294,44,68,1154,52
2528.305286,44,18,1154,52
2528.306269,45,-2,1154,52
2528.307261,43,-17,1154,52
2528.308253,37,-50,1154,52
2528.309247,29,-77,1154,52
2528.310249,22,-52,1154,52
2528.311226,16,-33,1154,52
2528.312234,9,-67,1154,52
2528.313219,1,-113,1154,52
2528.31422,-4,-78,1154,52
2528.315212,-6,-42,1154,52
2528.316199,-7,-43,1154,52
2528.317228,-11,-88,1154,52
2528.318197,-18,-106,1154,52
2528.319236,-24,-77,1154,52
2528.320196,-28,-42,1154,52
2528.321168,-31,-26,1154,52
2528.322163,-38,-47,1154,52
2528.323162,-48,-100,1154,52
2528.324166,-57,-113,1154,52
2528.325147,-61,-74,1154,52
2528.326161,-62,-22,1154,52
2528.327156,-62,-11,1154,52
2528.328121,-61,-20,1154,52
2528.329113,-58,-20,1154,52
2528.330127,-56,-14,1154,52
2528.331102,-55,-18,1154,52
2528.33213,-53,-25,1154,52
2528.333145,-50,-62,1154,52
2528.334235,-52,-105,1154,52
2528.335077,-56,-123,1154,52
2528.336083,-59,-112,1154,52
2528.337061,-61,-116,1154,52
2528.338048,-61,-107,1154,52
2528.339104,-63,-117,1154,52
2528.340081,-69,-170,1154,52
2528.341045,-78,-208,1154,52
2528.342059,-83,-147,1154,52
2528.343036,-82,-79,1154,52
2528.344029,-79,-59,1154,52
2528.345026,-79,-61,1154,52
2528.346012,-81,-71,1154,52
2528.347045,-85,-86,1154,52
2528.348012,-88,-87,1154,52
2528.349016,-92,-98,1154,52
2528.350003,-97,-112,1154,52
2528.350988,-101,-97,1154,52
2528.351974,-103,-56,1154,52
2528.352982,-102,-44,1154,52
2528.353937,-100,-65,1154,52
2528.354943,-98,-92,1154,52
2528.355957,-98,-101,1154,52
2528.356957,-97,-110,1154,52
2528.357956,-99,-136,1154,52
2528.358953,-101,-159,1154,52
2528.359931,-100,-145,1154,52
2528.360918,-95,-109,1154,52
2528.361938,-91,-82,1154,52
2528.362913,-91,-79,1154,52
2528.363941,-93,-88,1154,52
2528.364881,-93,-69,1154,52
2528.365883,-91,-34,1154,52
2528.366871,-89,-41,1154,52
2528.367868,-88,-65,1154,52
2528.368858,-87,-75,1154,52
2528.369832,-85,-65,1154,52
2528.370855,-81,-33,1154,52
2528.371852,-79,-11,1154,52
2528.372848,-80,-51,1154,52
2528.373868,-82,-108,1154,52
2528.374834,-83,-110,1154,52
2528.375877,-81,-76,1154,52
2528.376825,-78,-49,1154,52
2528.377846,-73,-29,1154,52
2528.3788,-66,-30,1154,52
2528.379793,-62,-63,1154,52
2528.380842,-60,-54,1154,52
2528.381802,-57,-28,1154,52
2528.382776,-54,-24,1154,52
2528.383773,-52,-36,1154,52
2528.384763,-51,-61,1154,52
2528.385759,-53,-78,1154,52
2528.386758,-54,-57,1154,52
2528.387736,-53,-40,1154,52
2528.388738,-54,-90,1154,52
2528.389707,-58,-157,1154,52
2528.390721,-66,-194,1154,52
2528.391732,-75,-194,1154,52
2528.392718,-81,-164,1154,52
2528.393708,-82,-127,1154,52
2528.394698,-82,-109,1154,52
2528.395696,-82,-82,1154,52
2528.396686,-84,-82,1154,52
2528.397684,-86,-68,1154,52
2528.398667,-86,-39,1154,52
2528.399677,-82,18,1154,52
2528.400712,-78,37,1154,52
2528.401662,-77,-11,1154,52
2528.402637,-79,-67,1154,52
2528.40365,-83,-114,1154,52
2528.404633,-87,-148,1154,52
2528.405621,-91,-155,1154,52
2528.406614,-95,-134,1154,52
2528.407615,-98,-108,1154,52
2528.408593,-96,-44,1154,52
2528.409574,-88,14,1154,52
2528.410578,-77,16,1154,52
2528.411596,-70,-57,1154,52
2528.412564,-69,-132,1154,52
2528.41357,-70,-149,1154,52
2528.414562,-70,-111,1154,52
2528.415547,-69,-75,1154,52
2528.416567,-71,-107,1154,52
2528.417563,-75,-144,1154,52
2528.418587,-78,-103,1154,52
2528.419515,-80,-25,1154,52
2528.42051,-83,-17,1154,52
2528.421536,-85,-59,1154,52
2528.422502,-87,-108,1154,52
2528.423509,-89,-150,1154,52
2528.424524,-89,-146,1154,52
2528.425517,-86,-102,1154,52
2528.426484,-83,-81,1154,52
2528.427487,-82,-73,1154,52
2528.428457,-82,-56,1154,52
2528.429489,-85,-44,1154,52
2528.43051,-89,-52,1154,52
2528.431471,-89,-61,1154,52
2528.432439,-86,-81,1154,52
2528.433441,-83,-92,1154,52
2528.43443,-82,-92,1154,52
2528.43543,-85,-120,1154,52
2528.43641,-86,-131,1154,52
2528.437402,-86,-141,1154,52
2528.43839,-89,-159,1154,52
2528.439407,-95,-158,1154,52
2528.440409,-101,-124,1154,52
2528.441392,-100,-56,1154,52
2528.442403,-98,-51,1154,52
2528.443378,-94,-88,1154,52
2528.44436,-92,-98,1154,52
2528.44534,-91,-82,1154,52
2528.446342,-91,-73,1154,52
2528.447317,-90,-62,1154,52
2528.448321,-88,-22,1154,52
2528.449321,-83,61,1154,52
2528.450368,-76,90,1154,52
2528.451326,-70,58,1154,52
2528.452316,-65,21,1154,52
2528.4533,-61,-7,1154,52
2528.454291,-58,-34,1154,52
2528.455292,-54,-51,1154,52
2528.456297,-49,-23,1154,52
2528.457268,-43,-18,1154,52
2528.458263,-36,-23,1154,52
2528.459272,-28,3,1154,52
2528.460248,-21,9,1154,52
2528.461258,-19,-6,1154,52
2528.46224,-18,-26,1154,52
2528.463286,-17,-75,1154,52
2528.464231,-18,-124,1154,52
2528.465242,-20,-126,1154,52
2528.466239,-23,-121,1154,52
2528.467211,-27,-140,1154,52
2528.468211,-33,-140,1154,52
2528.469194,-39,-68,1154,52
2528.470226,-44,-15,1154,52
2528.471199,-48,-20,1154,52
2528.47221,-52,-64,1154,52
2528.47316,-58,-127,1154,52
2528.474163,-65,-170,1154,52
2528.475141,-71,-172,1154,52
2528.476138,-79,-169,1154,52
2528.481676,-85,-147,1154,52
2528.481686,-90,-119,1154,52
2528.481696,-96,-111,1154,52
2528.481706,-99,-59,1154,52
2528.481716,-99,-4,1154,52
2528.482107,-96,22,1154,52
2528.483099,-94,-16,1154,52
2528.484093,-91,-67,1154,52
2528.485072,-89,-101,1154,52
2528.486093,-88,-94,1154,52
2528.48708,-82,-28,1154,52
2528.48807,-75,6,1154,52
2528.489055,-72,-2,1154,52
2528.490023,-72,-13,1154,52
2528.491029,-73,-47,1154,52
2528.492057,-75,-92,1154,52
2528.493041,-74,-111,1154,52
2528.493993,-70,-98,1154,52
2528.495012,-65,-77,1154,52
2528.496007,-60,-70,1154,52
2528.496996,-57,-71,1154,52
2528.497987,-54,-71,1154,52
2528.49898,-53,-82,1154,52
2528.499991,-55,-97,1154,52
2528.500985,-59,-97,1154,52
2528.501985,-64,-72,1154,52
2528.502958,-63,4,1154,52
2528.503951,-59,22,1154,52
2528.504984,-54,-8,1154,52
2528.505951,-49,2,1154,52
2528.506953,-48,2,1154,52
2528.507948,-49,-19,1154,52
2528.508944,-51,-43,1154,52
2528.509903,-53,-64,1154,52
2528.510899,-55,-70,1154,52
2528.511888,-52,-48,1154,52
2528.512883,-48,-24,1154,52
2528.513861,-44,-25,1154,52
2528.514878,-42,-22,1154,52
2528.51587,-38,7,1154,52
2528.516874,-35,-5,1154,52
2528.517869,-34,-57,1154,52
2528.518854,-34,-89,1154,52
2528.519843,-34,-86,1154,52
2528.520851,-33,-92,1154,52
2528.521847,-35,-109,1154,52
2528.522821,-41,-118,1154,52
2528.523823,-48,-105,1154,52
2528.52481,-51,-79,1154,52
2528.525798,-54,-56,1154,52
2528.526786,-56,-32,1154,52
2528.527785,-55,-7,1154,52
2528.528788,-54,-14,1154,52
2528.529758,-53,-47,1154,52
2528.530758,-52,-54,1154,52
2528.53174,-52,-36,1154,52
2528.532751,-52,-27,1154,52
2528.533727,-51,-19,1154,52
2528.53477,-50,2,1154,52
2528.535746,-49,36,1154,52
2528.536746,-48,10,1154,52
2528.537713,-47,-29,1154,52
2528.538732,-43,-24,1154,52
2528.539706,-39,1,1154,52
2528.540689,-33,32,1154,52
2528.541693,-27,16,1154,52
2528.542683,-20,16,1154,52
2528.543694,-13,24,1154,52
2528.544675,-8,30,1154,52
2528.545669,-6,-18,1154,52
2528.546639,-7,-59,1154,52
2528.547634,-9,-48,1154,52
2528.548631,-8,6,1154,52
2528.549645,-4,36,1154,52
2528.550635,-1,19,1154,52
2528.551651,1,18,1154,52
2528.552614,4,32,1154,52
2528.553637,7,34,1154,52
2528.554626,7,2,1154,52
2528.555612,2,-52,1154,52
2528.55659,-3,-111,1154,52
2528.557597,-9,-154,1154,52
2528.55858,-15,-145,1154,52
2528.559576,-20,-107,1154,52
2528.560566,-27,-92,1154,52
2528.561557,-32,-87,1154,52
2528.562602,-35,-50,1154,52
2528.563647,-37,-19,1154,52
2528.564692,-39,-12,1154,52
2528.565737,-38,3,1154,52
2528.566781,-35,3,1154,52
2528.567521,-35,-42,1154,52
2528.568508,-38,-49,1154,52
2528.569494,-41,-22,1154,52
2528.570493,-41,7,1154,52
2528.571486,-41,14,1154,52
2528.572746,-45,-43,1154,52
2528.573551,-51,-91,1154,52
2528.574474,-54,-50,1154,52
2528.575461,-52,-3,1154,52
2528.576438,-47,-15,1154,52
2528.577435,-41,-33,1154,52
2528.578435,-34,-21,1154,52
2528.57944,-29,-6,1154,52
2528.580435,-25,0,1154,52
2528.581432,-19,20,1154,52
2528.582417,-15,32,1154,52
2528.583442,-14,14,1154,52
2528.584412,-16,-49,1154,52
2528.585389,-20,-86,1154,52
2528.586389,-23,-63,1154,52
2528.587382,-24,-57,1154,52
2528.588367,-24,-55,1154,52
2528.589365,-27,-66,1154,52
2528.590357,-32,-99,1154,52
2528.591339,-39,-131,1154,52
2528.592346,-43,-116,1154,52
2528.593312,-42,-83,1154,52
2528.594322,-44,-74,1154,52
2528.595307,-45,-39,1154,52
2528.596336,-43,27,1154,52
2528.597294,-38,80,1154,52
2528.59828,-32,83,1154,52
2528.599275,-30,50,1154,52
2528.600329,-29,3,1154,52
2528.601321,-33,-50,1154,52
2528.602275,-38,-69,1154,52
2528.603261,-42,-65,1154,52
2528.604253,-41,-27,1154,52
2528.605296,-37,-9,1154,52
2528.606243,-35,-25,1154,52
2528.607241,-35,-58,1154,52
2528.60823,-36,-78,1154,52
2528.609222,-38,-93,1154,52
2528.610233,-37,-87,1154,52
2528.611204,-33,-56,1154,52
2528.612196,-29,-37,1154,52
2528.613207,-27,-37,1154,52
2528.61419,-24,-14,1154,52
2528.615172,-20,45,1154,52
2528.616304,-17,86,1154,52
2528.617155,-16,94,1154,52
2528.6182,-16,93,1154,52
2528.619171,-14,93,1154,52
2528.620178,-9,97,1154,52
2528.621164,-4,55,1154,52
2528.622152,-2,-39,1154,52
2528.62313,-5,-113,1154,52
2528.624142,-8,-105,1154,52
2528.62511,-10,-43,1154,52
2528.626105,-10,-27,1154,52
2528.627095,-8,-13,1154,52
2528.628081,-3,21,1154,52
2528.629083,2,30,1154,52
2528.630104,8,22,1154,52
2528.631076,10,-2,1154,52
2528.632145,11,-16,1154,52
2528.63307,14,11,1154,52
2528.634042,16,25,1154,52
2528.635063,13,-13,1154,52
2528.636054,5,-77,1154,52
2528.637033,-5,-127,1154,52
2528.63807,-16,-118,1154,52
2528.639022,-22,-34,1154,52
2528.640015,-26,28,1154,52
2528.641072,-28,16,1154,52
2528.642002,-26,0,1154,52
2528.642992,-21,-9,1154,52
2528.643985,-16,-22,1154,52
2528.645,-16,-31,1154,52
2528.645972,-16,-27,1154,52
2528.646975,-16,-13,1154,52
2528.648088,-16,27,1154,52
2528.64898,-14,69,1154,52
2528.649971,-11,65,1154,52
2528.65101,-10,29,1154,52
2528.652099,-9,-4,1154,52
2528.65292,-11,-19,1154,52
2528.653936,-14,-40,1154,52
2528.655004,-16,-55,1154,52
2528.655927,-15,-52,1154,52
2528.656901,-11,-41,1154,52
2528.657899,-8,-63,1154,52
2528.658882,-10,-85,1154,52
2528.659896,-16,-83,1154,52
2528.660852,-20,-63,1154,52
2528.661871,-22,-46,1154,52
2528.662866,-23,-18,1154,52
2528.663869,-21,15,1154,52
2528.664863,-16,58,1154,52
2528.665859,-12,56,1154,52
2528.666938,-11,1,1154,52
2528.667848,-16,-72,1154,52
2528.66882,-25,-99,1154,52
2528.669822,-33,-89,1154,52
2528.670868,-37,-70,1154,52
2528.671821,-40,-56,1154,52
2528.672803,-41,-36,1154,52
2528.673761,-39,-6,1154,52
2528.674816,-36,15,1154,52
2528.6758,-32,30,1154,52
2528.676771,-28,32,1154,52
2528.677781,-25,-7,1154,52
2528.678763,-24,-61,1154,52
2528.67982,-24,-74,1154,52
2528.680748,-23,-58,1154,52
2528.681751,-24,-67,1154,52
2528.682733,-27,-78,1154,52
2528.683718,-31,-57,1154,52
2528.68472,-34,-3,1154,52
2528.68574,-32,94,1154,52
2528.686711,-28,92,1154,52
2528.687691,-23,11,1154,52
2528.688688,-21,-51,1154,52
2528.689646,-19,-51,1154,52
2528.690688,-16,-15,1154,52
2528.691686,-13,17,1154,52
2528.692666,-10,21,1154,52
2528.693684,-8,35,1154,52
2528.694659,-4,94,1154,52
2528.695646,-1,79,1154,52
2528.696644,-3,-5,1154,52
2528.697637,-7,-74,1154,52
2528.69863,-6,-59,1154,52
2528.699588,-4,-30,1154,52
2528.700625,-2,-9,1154,52
2528.701607,2,19,1154,52
2528.702606,5,-1,1154,52
2528.703602,7,-20,1154,52
2528.704585,7,2,1154,52
2528.705585,4,18,1154,52
2528.706586,0,-3,1154,52
2528.707589,-3,-54,1154,52
2528.708567,-4,-73,1154,52
2528.709554,-3,-31,1154,52
2528.71054,-3,-5,1154,52
2528.711569,-5,-26,1154,52
2528.71253,-8,-42,1154,52
2528.713529,-12,-35,1154,52
2528.714501,-16,6,1154,52
2528.71555,-17,58,1154,52
2528.716499,-14,66,1154,52
2528.717506,-10,4,1154,52
2528.71852,-10,-68,1154,52
2528.719513,-13,-94,1154,52
2528.72046,-16,-70,1154,52
2528.721477,-19,-25,1154,52
2528.722476,-19,-6,1154,52
2528.723456,-19,-22,1154,52
2528.724443,-21,-35,1154,52
2528.725439,-23,-25,1154,52
2528.726441,-23,-12,1154,52
2528.727511,-22,-16,1154,52
2528.728406,-19,-19,1154,52
2528.729435,-17,5,1154,52
2528.730542,-17,-7,1154,52
2528.731538,-16,-5,1154,52
2528.732406,-13,28,1154,52
2528.733481,-9,46,1154,52
2528.734376,-8,16,1154,52
2528.735384,-11,-3,1154,52
2528.736374,-13,30,1154,52
2528.737358,-11,52,1154,52
2528.738351,-5,44,1154,52
2528.73934,0,16,1154,52
2528.740347,4,9,1154,52
2528.741334,6,21,1154,52
2528.742315,8,32,1154,52
2528.743324,11,48,1154,52
2528.744325,17,75,1154,52
2528.74532,21,67,1154,52
2528.746302,24,42,1154,52
2528.747301,25,4,1154,52
2528.748302,25,-19,1154,52
2528.749284,24,-10,1154,52
2528.750312,24,-5,1154,52
2528.751255,23,-30,1154,52
2528.752268,20,-30,1154,52
2528.75326,17,-15,1154,52
2528.754235,17,13,1154,52
2528.755254,20,51,1154,52
2528.756236,19,23,1154,52
2528.75724,15,-28,1154,52
2528.758255,10,-69,1154,52
2528.75924,6,-62,1154,52
2528.76021,5,-12,1154,52
2528.761192,5,20,1154,52
2528.762206,5,28,1154,52
2528.763418,3,15,1154,52
2528.764194,0,23,1154,52
2528.765176,0,54,1154,52
2528.766215,1,64,1154,52
2528.767176,2,21,1154,52
2528.768153,1,-32,1154,52
2528.76916,-1,-60,1154,52
2528.77024,-5,-89,1154,52
2528.771119,-7,-80,1154,52
2528.772127,-7,-20,1154,52
2528.773176,-5,17,1154,52
2528.774154,-4,33,1154,52
2528.77512,-5,40,1154,52
2528.776115,-4,42,1154,52
2528.777095,0,52,1154,52
2528.778082,5,40,1154,52
2528.779084,9,23,1154,52
2528.78009,11,25,1154,52
2528.781076,11,31,1154,52
2528.782069,12,37,1154,52
2528.783026,13,36,1154,52
2528.784033,12,7,1154,52
2528.785048,9,1,1154,52
2528.786123,7,24,1154,52
2528.787068,8,32,1154,52
2528.788021,10,-1,1154,52
2528.789014,10,-53,1154,52
2528.790059,11,-73,1154,52
2528.790996,10,-93,1154,52
2528.791986,6,-100,1154,52
2528.792965,1,-77,1154,52
2528.793951,0,-21,1154,52
2528.795017,-1,36,1154,52
2528.795974,0,51,1154,52
2528.797002,0,47,1154,52
2528.797946,-1,31,1154,52
2528.798988,-1,11,1154,52
2528.799953,-3,-9,1154,52
2528.800963,-5,-5,1154,52
2528.801896,-5,44,1154,52
2528.803001,-3,70,1154,52
2528.803931,-2,28,1154,52
2528.804902,-3,-27,1154,52
2528.805971,-7,-57,1154,52
2528.806934,-12,-71,1154,52
2528.807925,-16,-65,1154,52
2528.808969,-15,-34,1154,52
2528.809915,-11,9,1154,52
2528.810876,-3,51,1154,52
2528.811848,3,48,1154,52
2528.812854,6,-9,1154,52
2528.813875,4,-67,1154,52
2528.814847,0,-47,1154,52
2528.815827,0,45,1154,52
2528.816881,2,91,1154,52
2528.817809,2,43,1154,52
2528.818846,2,1,1154,52
2528.81982,2,-2,1154,52
2528.820809,3,17,1154,52
2528.821817,2,22,1154,52
2528.822901,0,-2,1154,52
2528.823785,-2,-6,1154,52
2528.824772,0,11,1154,52
2528.825773,5,58,1154,52
2528.826745,13,94,1154,52
2528.827745,20,80,1154,52
2528.828743,23,13,1154,52
2528.829743,21,-28,1154,52
2528.830722,19,16,1154,52
2528.831704,21,82,1154,52
2528.832736,27,116,1154,52
2528.833719,35,98,1154,52
2528.83471,41,73,1154,52
2528.835699,41,42,1154,52
2528.836693,36,-9,1154,52
2528.837683,32,-31,1154,52
2528.838672,31,-18,1154,52
2528.839754,30,-20,1154,52
2528.840652,27,-61,1154,52
2528.841616,20,-107,1154,52
2528.84272,15,-97,1154,52
2528.84367,14,-38,1154,52
2528.844652,13,-8,1154,52
2528.845632,10,9,1154,52
2528.846634,8,38,1154,52
2528.84761,5,28,1154,52
2528.848594,4,-4,1154,52
2528.849593,5,-16,1154,52
2528.850616,4,12,1154,52
2528.851597,2,37,1154,52
2528.852611,-1,27,1154,52
2528.85367,-6,11,1154,52
2528.854599,-10,-9,1154,52
2528.855555,-14,-34,1154,52
2528.856559,-14,-28,1154,52
2528.857555,-13,3,1154,52
2528.858562,-11,8,1154,52
2528.859529,-10,2,1154,52
2528.860519,-6,32,1154,52
2528.861507,1,56,1154,52
2528.862514,8,32,1154,52
2528.863484,9,-9,1154,52
2528.864644,8,-42,1154,52
2528.8655,5,-54,1154,52
2528.866498,2,-19,1154,52
2528.867479,0,-23,1154,52
2528.86848,-3,-75,1154,52
2528.869559,-8,-111,1154,52
2528.87047,-13,-93,1154,52
2528.871437,-18,-55,1154,52
2528.872445,-21,-33,1154,52
2528.873438,-23,-29,1154,52
2528.874437,-23,-17,1154,52
2528.875448,-22,-11,1154,52
2528.876421,-22,-19,1154,52
2528.877422,-23,-19,1154,52
2528.87839,-23,3,1154,52
2528.879388,-22,24,1154,52
2528.880373,-23,14,1154,52
2528.881392,-26,4,1154,52
2528.882389,-26,21,1154,52
2528.883399,-23,45,1154,52
2528.884345,-19,48,1154,52
2528.885345,-15,22,1154,52
2528.88635,-14,-2,1154,52
2528.887357,-13,6,1154,52
2528.888316,-7,35,1154,52
2528.889331,0,53,1154,52
2528.890303,6,33,1154,52
2528.891316,9,-8,1154,52
2528.892306,8,-38,1154,52
2528.893271,6,-83,1154,52
2528.894278,3,-69,1154,52
2528.895285,4,4,1154,52
2528.896292,8,60,1154,52
2528.89726,12,61,1154,52
2528.898263,15,79,1154,52
2528.899248,19,88,1154,52
2528.900308,20,43,1154,52
2528.901243,21,21,1154,52
2528.902232,23,53,1154,52
2528.903239,24,69,1154,52
2528.904246,23,41,1154,52
2528.90525,21,-27,1154,52
2528.906199,17,-78,1154,52
2528.907194,13,-86,1154,52
2528.908192,8,-62,1154,52
2528.909179,4,-14,1154,52
2528.910178,3,3,1154,52
2528.911172,4,5,1154,52
2528.91218,7,31,1154,52
2528.913161,14,54,1154,52
2528.914154,19,32,1154,52
2528.915148,19,14,1154,52
2528.916136,17,21,1154,52
2528.917144,15,3,1154,52
2528.918119,10,-19,1154,52
2528.919151,4,-19,1154,52
2528.920133,2,6,1154,52
2528.921129,2,8,1154,52
2528.922117,0,18,1154,52
2528.923099,-1,33,1154,52
2528.924091,-1,33,1154,52
2528.925079,0,17,1154,52
2528.926092,4,9,1154,52
2528.927065,9,12,1154,52
2528.928068,14,38,1154,52
2528.929053,18,52,1154,52
2528.93006,20,44,1154,52
2528.931029,21,37,1154,52
2528.932051,20,14,1154,52
2528.933024,16,-33,1154,52
2528.934041,12,-47,1154,52
2528.935014,10,-26,1154,52
2528.936038,9,-2,1154,52
2528.937022,11,41,1154,52
2528.937971,15,57,1154,52
2528.939004,18,56,1154,52
2528.940004,20,37,1154,52
2528.940973,19,-10,1154,52
2528.941977,17,-15,1154,52
2528.942971,17,21,1154,52
2528.943962,18,55,1154,52
2528.944942,19,46,1154,52
2528.945946,19,11,1154,52
2528.946935,17,-31,1154,52
2528.947931,12,-58,1154,52
2528.94896,8,-34,1154,52
2528.950039,6,5,1154,52
2528.950979,5,17,1154,52
2528.951879,5,16,1154,52
2528.952945,7,9,1154,52
2528.953909,10,-4,1154,52
2528.954874,12,18,1154,52
2528.955887,13,32,1154,52
2528.956861,13,28,1154,52
2528.95787,11,12,1154,52
2528.958896,8,4,1154,52
2528.959883,7,11,1154,52
2528.960847,10,53,1154,52
2528.961842,14,69,1154,52
2528.962818,15,38,1154,52
2528.963822,13,21,1154,52
2528.964812,11,12,1154,52
2528.965804,10,-13,1154,52
2528.966825,10,-28,1154,52
2528.967796,13,-13,1154,52
2528.968785,16,38,1154,52
2528.969781,21,90,1154,52
2528.970769,25,103,1154,52
2528.971741,29,98,1154,52
2528.972776,32,70,1154,52
2528.973786,33,24,1154,52
2528.974742,32,-8,1154,52
2528.975754,29,-30,1154,52
2528.97673,26,-38,1154,52
2528.977719,23,-35,1154,52
2528.978714,24,17,1154,52
2528.979705,28,85,1154,52
2528.980705,32,130,1154,52
2528.981709,34,128,1154,52
2528.982702,38,115,1154,52
2528.983697,43,117,1154,52
2528.984688,48,101,1154,52
2528.985676,54,106,1154,52
2528.98668,60,103,1154,52
2528.987681,63,53,1154,52
2528.988684,62,16,1154,52
2528.98968,58,5,1154,52
2528.990651,53,-7,1154,52
2528.991624,48,1,1154,52
2528.992634,46,36,1154,52
2528.99363,49,75,1154,52
2528.994605,53,90,1154,52
2528.995609,60,103,1154,52
2528.996624,68,127,1154,52
2528.997601,78,154,1154,52
2528.998588,87,197,1154,52
2528.999595,93,205,1154,52
2529.000567,95,168,1154,52
2529.001566,94,108,1154,52
2529.002564,91,56,1154,52
2529.003559,86,32,1154,52
2529.004558,83,39,1154,52
2529.005594,81,67,1154,52
2529.006539,80,78,1154,52
2529.007563,81,61,1154,52
2529.00855,82,54,1154,52
2529.009518,85,58,1154,52
2529.010538,88,47,1154,52
2529.011481,90,53,1154,52
2529.012511,94,104,1154,52
2529.013486,96,117,1154,52
2529.014467,98,133,1154,52
2529.015528,101,168,1154,52
2529.016447,103,168,1154,52
2529.017457,102,135,1154,52
2529.018446,97,81,1154,52
2529.019443,87,15,1154,52
2529.020465,79,2,1154,52
2529.021423,75,32,1154,52
2529.022486,75,48,1154,52
2529.023425,75,39,1154,52
2529.024403,74,21,1154,52
2529.025413,71,11,1154,52
2529.026401,69,37,1154,52
2529.027384,70,69,1154,52
2529.028387,71,79,1154,52
2529.029392,73,102,1154,52
2529.030362,76,106,1154,52
2529.031369,78,94,1154,52
2529.03239,77,84,1154,52
2529.033452,74,55,1154,52
2529.03433,69,31,1154,52
2529.035339,60,-16,1154,52
2529.036322,49,-43,1154,52
2529.037318,42,-14,1154,52
2529.038326,37,-17,1154,52
2529.039294,35,-19,1154,52
2529.040354,36,19,1154,52
2529.041312,37,53,1154,52
2529.042293,37,50,1154,52
2529.043287,37,41,1154,52
2529.044383,37,26,1154,52
2529.045267,39,45,1154,52
2529.046266,39,36,1154,52
2529.047255,34,-25,1154,52
2529.048255,28,-42,1154,52
2529.049256,23,-11,1154,52
2529.050296,17,-14,1154,52
2529.05121,9,-57,1154,52
2529.052225,1,-83,1154,52
2529.053225,-4,-52,1154,52
2529.054223,-6,-17,1154,52
2529.055199,-6,-14,1154,52
2529.056169,-5,-23,1154,52
2529.0572,-8,-79,1154,52
2529.058197,-13,-117,1154,52
2529.059185,-18,-124,1154,52
2529.060173,-25,-122,1154,52
2529.061163,-34,-118,1154,52
2529.062148,-42,-112,1154,52
2529.063135,-49,-98,1154,52
2529.064132,-54,-79,1154,52
2529.065122,-59,-46,1154,52
2529.06612,-61,-13,1154,52
2529.06713,-61,-9,1154,52
2529.068162,-60,-39,1154,52
2529.069103,-64,-86,1154,52
2529.070111,-68,-101,1154,52
2529.0711,-72,-118,1154,52
2529.072112,-75,-152,1154,52
2529.073088,-81,-167,1154,52
2529.074082,-88,-160,1154,52
2529.075068,-92,-93,1154,52
2529.076076,-90,12,1154,52
2529.077057,-84,44,1154,52
2529.078045,-79,-15,1154,52
2529.079033,-76,-58,1154,52
2529.080044,-71,-38,1154,52
2529.081047,-66,-12,1154,52
2529.082037,-59,20,1154,52
2529.083018,-52,41,1154,52
2529.084018,-47,27,1154,52
2529.085009,-45,-5,1154,52
2529.086007,-47,-48,1154,52
2529.086984,-49,-46,1154,52
2529.087955,-47,-6,1154,52
2529.088977,-44,-15,1154,52
2529.090004,-41,-44,1154,52
2529.090961,-37,-37,1154,52
2529.091966,-29,-9,1154,52
2529.092962,-21,2,1154,52
2529.093954,-15,-42,1154,52
2529.094938,-16,-104,1154,52
2529.095958,-22,-123,1154,52
2529.096938,-30,-103,1154,52
2529.097946,-33,-82,1154,52
2529.098977,-34,-71,1154,52
2529.099921,-35,-67,1154,52
2529.10093,-38,-68,1154,52
2529.101891,-42,-67,1154,52
2529.102894,-48,-75,1154,52
2529.103904,-54,-89,1154,52
2529.10485,-59,-99,1154,52
2529.105836,-63,-127,1154,52
2529.106851,-68,-147,1154,52
2529.107887,-74,-134,1154,52
2529.108853,-79,-113,1154,52
2529.109846,-80,-55,1154,52
2529.110833,-78,-8,1154,52
2529.111834,-79,-20,1154,52
2529.112854,-82,-73,1154,52
2529.11381,-84,-84,1154,52
2529.114816,-80,-16,1154,52
2529.115822,-73,13,1154,52
2529.116782,-68,-2,1154,52
2529.117823,-65,-10,1154,52
2529.118792,-62,-18,1154,52
2529.119782,-59,-11,1154,52
2529.120774,-55,9,1154,52
2529.121759,-51,23,1154,52
2529.122797,-45,33,1154,52
2529.123752,-38,55,1154,52
2529.124739,-28,104,1154,52
2529.125745,-14,163,1154,52
2529.12675,3,201,1154,52
2529.127698,23,260,1154,52
2529.128741,45,327,1154,52
2529.129724,65,362,1154,52
2529.130705,85,383,1154,52
2529.131693,106,398,1154,52
2529.132696,131,429,1154,52
2529.133718,159,480,1154,52
2529.134717,186,517,1154,52
2529.13572,210,493,1154,52
2529.136663,234,486,1154,52
2529.137726,260,508,1154,52
2529.138677,286,490,1154,52
2529.139646,306,397,1154,52
2529.140637,320,286,1154,52
2529.141671,328,197,1154,52
2529.142658,334,140,1154,52
2529.143665,338,135,1154,52
2529.144625,339,123,1154,52
2529.145626,335,79,1154,52
2529.146719,326,37,1154,52
2529.14758,314,10,1154,52
2529.148583,297,-3,1154,52
2529.149587,280,16,1154,52
2529.150557,263,49,1154,52
2529.151573,248,93,1154,52
2529.152572,231,84,1154,52
2529.153564,209,44,1154,52
2529.154626,184,24,1154,52
2529.155745,161,24,1154,52
2529.156523,137,3,1154,52
2529.157542,110,-30,1154,52
2529.158523,83,-40,1154,52
2529.159517,62,-40,1154,52
2529.16051,45,-38,1154,52
2529.161502,32,-62,1154,52
2529.162491,22,-77,1154,52
2529.163495,11,-68,1154,52
2529.164477,2,-61,1154,52
2529.165516,-3,-53,1154,52
2529.166454,-9,-66,1154,52
2529.167455,-13,-73,1154,52
2529.168454,-16,-77,1154,52
2529.169463,-21,-83,1154,52
2529.170447,-29,-106,1154,52
2529.171427,-40,-131,1154,52
2529.172443,-49,-93,1154,52
2529.173468,-53,-40,1154,52
2529.174431,-58,-60,1154,52
2529.175394,-63,-86,1154,52
2529.176427,-68,-89,1154,52
2529.177393,-72,-109,1154,52
2529.178382,-75,-116,1154,52
2529.179363,-79,-103,1154,52
2529.180373,-80,-63,1154,52
2529.181352,-78,-19,1154,52
2529.182395,-73,8,1154,52
2529.183405,-70,-5,1154,52
2529.184334,-68,-22,1154,52
2529.185622,-67,-32,1151,52
2529.186494,-66,-44,1151,52
2529.187397,-65,-47,1151,52
2529.188338,-64,-68,1151,52
2529.189306,-64,-76,1151,52
2529.190301,-62,-69,1151,52
2529.191305,-59,-73,1151,52
2529.192312,-58,-66,1151,52
2529.193272,-60,-81,1151,52
2529.194276,-62,-101,1151,52
2529.19527,-65,-136,1151,52
2529.196287,-68,-167,1151,52
2529.197247,-71,-157,1151,52
2529.198243,-71,-111,1151,52
2529.199229,-68,-47,1151,52
2529.200249,-66,-32,1151,52
2529.201283,-68,-55,1151,52
2529.202257,-71,-48,1151,52
2529.204091,-70,7,1151,52
2529.204548,-67,34,1151,52
2529.205202,-65,15,1151,52
2529.206216,-64,-13,1151,52
2529.207276,-64,-58,1151,52
2529.208175,-65,-82,1151,52
2529.20919,-65,-71,1151,52
2529.210203,-65,-77,1151,52
2529.211165,-66,-88,1151,52
2529.212163,-68,-102,1151,52
2529.213185,-68,-86,1151,52
2529.214162,-68,-110,1151,52
2529.215144,-67,-118,1151,52
2529.216222,-64,-98,1151,52
2529.217217,-60,-70,1151,52
2529.218839,-57,-56,1151,52
2529.219801,-58,-71,1151,52
2529.220113,-60,-66,1151,52
2529.221079,-61,-72,1151,52
2529.222075,-61,-51,1151,52
2529.223122,-61,-8,1151,52
2529.224102,-63,4,1151,52
2529.22507,-64,-15,1151,52
2529.226054,-65,-25,1151,52
2529.227044,-64,-32,1151,52
2529.22804,-63,-71,1151,52
2529.229045,-64,-89,1151,52
2529.230033,-64,-71,1151,52
2529.231036,-63,-65,1151,52
2529.232061,-61,-72,1151,52
2529.233039,-61,-81,1151,52
2529.233993,-57,-37,1151,52
2529.235001,-50,35,1151,52
2529.236015,-42,46,1151,52
2529.23701,-37,41,1151,52
2529.237978,-33,23,1151,52
2529.238991,-30,-11,1151,52
2529.239995,-29,-40,1151,52
2529.240972,-29,-83,1151,52
2529.241949,-31,-91,1151,52
2529.242945,-34,-68,1151,52
2529.243953,-35,-6,1151,52
2529.244938,-33,14,1151,52
2529.245916,-31,26,1151,52
2529.246919,-28,20,1151,52
2529.247944,-24,17,1151,52
2529.248931,-18,30,1151,52
2529.249941,-12,38,1151,52
2529.250908,-7,41,1151,52
2529.2519,-2,29,1151,52
2529.252906,2,6,1151,52
2529.253869,2,-20,1151,52
2529.254872,-1,-50,1151,52
2529.255863,-7,-84,1151,52
2529.256874,-14,-88,1151,52
2529.257854,-19,-74,1151,52
2529.258846,-20,-39,1151,52
2529.25986,-19,-11,1151,52
2529.260817,-14,9,1151,52
2529.261852,-9,13,1151,52
2529.262849,-6,-3,1151,52
2529.263807,-6,-14,1151,52
2529.264806,-7,-6,1151,52
2529.265791,-8,0,1151,52
2529.266794,-10,-16,1151,52
2529.267782,-12,-27,1151,52
2529.26877,-15,-16,1151,52
2529.269794,-16,13,1151,52
2529.270757,-17,15,1151,52
2529.271768,-19,-9,1151,52
2529.272766,-21,-31,1151,52
2529.273851,-22,-36,1151,52
2529.27477,-21,-36,1151,52
2529.275744,-17,-11,1151,52
2529.27673,-11,35,1151,52
2529.277696,-4,70,1151,52
2529.278718,0,65,1151,52
2529.279705,3,44,1151,52
2529.280746,4,23,1151,52
2529.281687,6,69,1151,52
2529.282668,13,126,1151,52
2529.283749,18,93,1151,52
2529.284667,18,-21,1151,52
2529.285657,14,-63,1151,52
2529.286653,13,-37,1151,52
2529.287633,14,-22,1151,52
2529.288667,13,-26,1151,52
2529.289692,11,-36,1151,52
2529.290638,8,-47,1151,52
2529.291629,6,-43,1151,52
2529.292618,5,-49,1151,52
2529.293608,3,-80,1151,52
2529.294659,0,-90,1151,52
2529.29561,-3,-98,1151,52
2529.296654,-9,-80,1151,52
2529.298223,-13,-5,1151,52
2529.299566,-12,83,1151,52
2529.299617,-9,105,1151,52
2529.300626,-5,92,1151,52
2529.301574,-6,66,1151,52
2529.302546,-10,30,1151,52
2529.30356,-13,35,1151,52
2529.304605,-11,17,1151,52
2529.305559,-9,-6,1151,52
2529.30653,-7,-2,1151,52
2529.307521,-6,0,1151,52
2529.308522,-5,-12,1151,52
2529.309518,-4,-25,1151,52
2529.310544,-4,-35,1151,52
2529.31149,-4,-40,1151,52
2529.312467,-4,-45,1151,52
2529.313469,-2,-40,1151,52
2529.315933,0,-31,1151,52
2529.315958,5,-6,1151,52
2529.31646,10,9,1151,52
2529.317442,10,4,1151,52
2529.318462,7,20,1151,52
2529.31943,4,49,1151,52
2529.320438,3,68,1151,52
2529.321426,2,53,1151,52
2529.322419,2,22,1151,52
2529.323398,2,38,1151,52
2529.324376,4,55,1151,52
2529.3254,6,45,1151,52
2529.326367,7,17,1151,52
2529.327364,6,-30,1151,52
2529.328348,4,-52,1151,52
2529.329351,4,-31,1151,52
2529.330354,6,17,1151,52
2529.331336,11,54,1151,52
2529.332365,16,57,1151,52
2529.333322,20,46,1151,52
2529.334319,24,42,1151,52
2529.335316,27,66,1151,52
2529.336319,33,110,1151,52
2529.337325,39,138,1151,52
2529.338297,45,144,1151,52
2529.339278,49,115,1151,52
2529.340273,48,48,1151,52
2529.341267,46,28,1151,52
2529.34227,49,71,1151,52
2529.343252,52,108,1151,52
2529.344342,53,70,1151,52
2529.345255,52,13,1151,52
2529.346239,49,-32,1151,52
2529.347229,49,-25,1151,52
2529.348223,53,18,1151,52
2529.349229,57,48,1151,52
2529.35023,58,47,1151,52
2529.351216,56,17,1151,52
2529.352198,53,-18,1151,52
2529.353245,50,-10,1151,52
2529.354198,49,24,1151,52
2529.355421,48,54,1151,52
2529.356184,47,81,1151,52
2529.357182,44,85,1151,52
2529.358202,40,63,1151,52
2529.359163,37,52,1151,52
2529.360279,35,11,1151,52
2529.361191,33,-19,1151,52
2529.362153,30,6,1151,52
2529.363131,26,29,1151,52
2529.364125,23,6,1151,52
2529.365127,21,-15,1151,52
2529.366107,23,12,1151,52
2529.367114,27,58,1151,52
2529.368117,32,104,1151,52
2529.369137,36,136,1151,52
2529.370111,40,127,1151,52
2529.371145,44,89,1151,52
2529.372113,48,76,1151,52
2529.373089,51,43,1151,52
2529.374062,51,20,1151,52
2529.375066,50,44,1151,52
2529.376033,48,40,1151,52
2529.377027,45,24,1151,52
2529.378022,42,-9,1151,52
2529.379031,37,-45,1151,52
2529.38003,34,-43,1151,52
2529.38101,37,31,1151,52
2529.382012,42,111,1151,52
2529.383007,49,167,1151,52
2529.384013,57,176,1151,52
2529.384989,66,150,1151,52
2529.385978,73,164,1151,52
2529.386981,79,165,1151,52
2529.387962,80,136,1151,52
2529.388975,80,133,1151,52
2529.389956,78,87,1151,52
2529.390939,74,10,1151,52
2529.391933,71,11,1151,52
2529.392946,72,71,1151,52
2529.393919,76,105,1151,52
2529.394915,78,75,1151,52
2529.39592,78,49,1151,52
2529.396923,80,48,1151,52
2529.3979,82,44,1151,52
2529.398903,86,26,1151,52
2529.399906,89,21,1151,52
2529.400891,89,35,1151,52
2529.401882,87,63,1151,52
2529.402863,84,107,1151,52
2529.403886,82,134,1151,52
2529.404871,81,141,1151,52
2529.405864,80,134,1151,52
2529.406897,77,108,1151,52
2529.407866,75,106,1151,52
2529.408818,75,131,1151,52
2529.409809,77,122,1151,52
2529.410803,81,95,1151,52
2529.411803,85,82,1151,52
2529.412787,84,55,1151,52
2529.413769,81,35,1151,52
2529.41478,79,38,1151,52
2529.415803,78,37,1151,52
2529.416797,78,43,1151,52
2529.417773,77,36,1151,52
2529.41877,78,37,1151,52
2529.419767,80,67,1151,52
2529.420745,82,72,1151,52
2529.421749,82,67,1151,52
2529.42272,81,73,1151,52
2529.423719,78,75,1151,52
2529.424726,75,94,1151,52
2529.425734,73,90,1151,52
2529.426704,72,76,1151,52
2529.427753,69,61,1151,52
2529.428688,66,65,1151,52
2529.429693,65,104,1151,52
2529.430683,67,140,1151,52
2529.431674,69,123,1151,52
2529.43266,71,83,1151,52
2529.433635,72,61,1151,52
2529.434659,73,52,1151,52
2529.435621,73,38,1151,52
2529.436652,72,32,1151,52
2529.437654,73,55,1151,52
2529.438631,75,81,1151,52
2529.439643,75,50,1151,52
2529.440606,72,24,1151,52
2529.441599,72,65,1151,52
2529.442603,74,101,1151,52
2529.44359,75,102,1151,52
2529.444568,74,81,1151,52
2529.445578,72,48,1151,52
2529.446555,69,17,1151,52
2529.447565,67,18,1151,52
2529.448576,66,39,1151,52
2529.449555,63,42,1151,52
2529.45055,58,50,1151,52
2529.45155,55,55,1151,52
2529.452537,51,18,1151,52
2529.453667,47,-25,1151,52
2529.45452,42,-59,1151,52
2529.455501,35,-101,1151,52
2529.45651,27,-115,1151,52
2529.457463,20,-82,1151,52
2529.45853,14,-41,1151,52
2529.459499,11,-15,1151,52
2529.460482,10,0,1151,52
2529.461473,8,22,1151,52
2529.462463,3,4,1151,52
2529.463446,-3,-31,1151,52
2529.464441,-10,-63,1151,52
2529.465466,-16,-68,1151,52
2529.466427,-20,-67,1151,52
2529.467448,-25,-91,1151,52
2529.468398,-33,-109,1151,52
2529.469437,-40,-95,1151,52
2529.47042,-46,-83,1151,52
2529.471409,-53,-84,1151,52
2529.472407,-57,-47,1151,52
2529.473428,-56,-21,1151,52
2529.474392,-55,-42,1151,52
2529.475406,-52,-39,1151,52
2529.47636,-47,1,1151,52
2529.477356,-44,-26,1151,52
2529.478352,-45,-64,1151,52
2529.479346,-46,-28,1151,52
2529.480337,-46,-16,1151,52
2529.48134,-51,-80,1151,52
2529.482327,-58,-122,1151,52
2529.483324,-64,-152,1151,52
2529.484432,-69,-169,1151,52
2529.485324,-72,-116,1151,52
2529.486309,-73,-96,1151,52
2529.487325,-74,-109,1151,52
2529.488305,-73,-83,1151,52
2529.489264,-71,-65,1151,52
2529.490264,-69,-51,1151,52
2529.491265,-68,-46,1151,52
2529.492267,-68,-58,1151,52
2529.493247,-71,-80,1151,52
2529.494245,-73,-85,1151,52
2529.495308,-74,-52,1151,52
2529.496227,-75,-16,1151,52
2529.497211,-74,-14,1151,52
2529.498214,-72,-19,1151,52
2529.499197,-72,-33,1151,52
2529.500189,-75,-69,1151,52
2529.501262,-76,-111,1151,52
2529.502182,-77,-134,1151,52
2529.50319,-75,-113,1151,52
2529.50417,-71,-95,1151,52
2529.505209,-70,-91,1151,52
2529.506194,-70,-97,1151,52
2529.507151,-69,-95,1151,52
2529.508176,-70,-90,1151,52
2529.509144,-69,-56,1151,52
2529.510143,-66,22,1151,52
2529.51114,-62,36,1151,52
2529.512144,-59,-1,1151,52
2529.513113,-58,-57,1151,52
2529.514107,-59,-106,1151,52
2529.515102,-63,-131,1151,52
2529.516111,-66,-95,1151,52
2529.517095,-67,-17,1151,52
2529.518076,-66,2,1151,52
2529.519096,-64,-8,1151,52
2529.520097,-63,-41,1151,52
2529.521074,-62,-90,1151,52
2529.522081,-62,-143,1151,52
2529.523049,-66,-184,1151,52
2529.52404,-70,-182,1151,52
2529.525027,-73,-148,1151,52
2529.526026,-75,-126,1151,52
2529.527016,-75,-101,1151,52
2529.528021,-76,-104,1151,52
2529.529017,-79,-135,1151,52
2529.530003,-88,-150,1151,52
2529.530994,-96,-118,1151,52
2529.53206,-100,-90,1151,52
2529.533006,-101,-67,1151,52
2529.533992,-98,-51,1151,52
2529.534986,-95,-76,1151,52
2529.535968,-96,-105,1151,52
2529.536956,-100,-94,1151,52
2529.537968,-103,-70,1151,52
2529.539001,-106,-55,1151,52
2529.539937,-106,-45,1151,52
2529.540959,-103,-40,1151,52
2529.541954,-97,-28,1151,52
2529.542934,-89,-13,1151,52
2529.543887,-80,3,1151,52
2529.544885,-73,-16,1151,52
2529.545897,-69,-47,1151,52
2529.546859,-68,-80,1151,52
2529.547882,-67,-89,1151,52
2529.548904,-64,-61,1151,52
2529.549919,-57,-15,1151,52
2529.550864,-50,19,1151,52
2529.551852,-45,8,1151,52
2529.552857,-43,-22,1151,52
2529.553836,-42,-41,1151,52
2529.554847,-41,-53,1151,52
2529.555841,-39,-52,1151,52
2529.556839,-36,-49,1151,52
2529.557827,-34,-30,1151,52
2529.558802,-33,-35,1151,52
2529.559854,-34,-68,1151,52
2529.560802,-37,-85,1151,52
2529.5618,-42,-128,1151,52
2529.562776,-49,-163,1151,52
2529.563853,-56,-137,1151,52
2529.564835,-58,-46,1151,52
2529.565722,-55,0,1151,52
2529.566734,-52,-17,1151,52
2529.567763,-49,-20,1151,52
2529.568754,-46,-3,1151,52
2529.569757,-47,-28,1151,52
2529.570737,-53,-102,1151,52
2529.571709,-61,-151,1151,52
2529.572708,-65,-105,1151,52
2529.573696,-66,-59,1151,52
2529.574712,-66,-62,1151,52
2529.575708,-68,-82,1151,52
2529.576678,-69,-88,1151,52
2529.577671,-72,-79,1151,52
2529.578648,-73,-58,1151,52
2529.579657,-72,-42,1151,52
2529.580655,-69,-39,1151,52
2529.581648,-65,-42,1151,52
2529.582614,-61,-85,1151,52
2529.583636,-61,-122,1151,52
2529.584634,-64,-120,1151,52
2529.585651,-69,-99,1151,52
2529.586618,-70,-41,1151,52
2529.587625,-70,-15,1151,52
2529.588662,-71,-30,1151,52
2529.589594,-73,-50,1151,52
2529.590594,-70,-54,1151,52
2529.591582,-67,-81,1151,52
2529.592559,-65,-75,1151,52
2529.593541,-63,-22,1151,52
2529.594645,-60,-4,1151,52
2529.595549,-57,-12,1151,52
2529.596532,-53,-16,1151,52
2529.597527,-49,1,1151,52
2529.598545,-46,13,1151,52
2529.599522,-42,32,1151,52
2529.60052,-38,38,1151,52
2529.601517,-36,1,1151,52
2529.602493,-34,-34,1151,52
2529.603524,-28,-17,1151,52
2529.60453,-22,10,1151,52
2529.605508,-17,-7,1151,52
2529.60648,-17,-28,1151,52
2529.607472,-18,-37,1151,52
2529.608453,-18,-35,1151,52
2529.609449,-17,-32,1151,52
2529.610442,-16,-38,1151,52
2529.611434,-15,-50,1151,52
2529.612428,-14,-61,1151,52
2529.613441,-15,-51,1151,52
2529.614448,-15,9,1151,52
2529.615449,-11,57,1151,52
2529.616436,-7,66,1151,52
2529.617411,-6,33,1151,52
2529.618406,-6,7,1151,52
2529.61943,-7,7,1151,52
2529.62039,-9,4,1151,52
2529.621416,-9,4,1151,52
2529.622431,-7,-7,1151,52
2529.623371,-8,-27,1151,52
2529.624397,-11,-51,1151,52
2529.625362,-14,-74,1151,52
2529.626353,-17,-87,1151,52
2529.627393,-20,-98,1151,52
2529.628352,-24,-114,1151,52
2529.629338,-28,-104,1151,52
2529.630315,-29,-62,1151,52
2529.631299,-25,20,1151,52
2529.632325,-18,83,1151,52
2529.633344,-13,63,1151,52
2529.634303,-12,12,1151,52
2529.635296,-15,4,1151,52
2529.636296,-18,6,1151,52
2529.63731,-20,-10,1151,52
2529.638307,-22,-22,1151,52
2529.639281,-24,-30,1151,52
2529.640271,-26,-37,1151,52
2529.641243,-28,-50,1151,52
2529.642273,-31,-58,1151,52
2529.643219,-31,-25,1151,52
2529.644227,-28,-3,1151,52
2529.645269,-26,-29,1151,52
2529.646221,-25,-73,1151,52
2529.647213,-24,-65,1151,52
2529.648202,-17,27,1151,52
2529.649201,-6,107,1151,52
2529.650218,0,73,1151,52
2529.65119,0,19,1151,52
2529.652184,-2,28,1151,52
2529.653167,-3,39,1151,52
2529.654169,-2,33,1151,52
2529.655138,-2,19,1151,52
2529.656154,-2,3,1151,52
2529.657155,-3,-26,1151,52
2529.65816,-3,-41,1151,52
2529.659147,-3,-30,1151,52
2529.66012,-2,-16,1151,52
2529.661114,0,3,1151,52
2529.662115,3,23,1151,52
2529.663103,4,-5,1151,52
2529.664105,3,-33,1151,52
2529.665079,4,-3,1151,52
2529.666107,10,37,1151,52
2529.667059,15,48,1151,52
2529.668092,15,29,1151,52
2529.669063,10,-9,1151,52
2529.670071,3,-49,1151,52
2529.671062,-1,-83,1151,52
2529.67205,-6,-85,1151,52
2529.673039,-11,-59,1151,52
2529.674044,-15,-52,1151,52
2529.675025,-20,-65,1151,52
2529.676,-23,-58,1151,52
2529.677027,-21,-1,1151,52
2529.678012,-18,31,1151,52
2529.679007,-16,3,1151,52
2529.679992,-16,-7,1151,52
2529.680986,-15,10,1151,52
2529.681985,-15,25,1151,52
2529.682971,-14,30,1151,52
2529.683958,-10,37,1151,52
2529.684961,-9,11,1151,52
2529.685979,-12,-19,1151,52
2529.686936,-15,-13,1151,52
2529.687954,-17,-3,1151,52
2529.68895,-18,-27,1151,52
2529.689934,-19,-80,1151,52
2529.69094,-21,-124,1151,52
2529.691892,-24,-140,1151,52
2529.692902,-27,-122,1151,52
2529.693862,-29,-91,1151,52
2529.694885,-29,-58,1151,52
2529.69588,-27,-23,1151,52
2529.696871,-29,-31,1151,52
2529.697874,-33,-52,1151,52
2529.698872,-33,-3,1151,52
2529.699966,-29,69,1151,52
2529.70084,-26,71,1151,52
2529.701854,-25,43,1151,52
2529.702834,-25,30,1151,52
2529.703847,-27,7,1151,52
2529.70483,-28,-22,1151,52
