timestamp,New ECG Sample
4694.375775,-72
4694.376761,-72
4694.377762,-80
4694.378764,-84
4694.379865,-83
4694.380755,-115
4694.381703,-148
4694.382745,-138
4694.383736,-118
4694.384765,-85
4694.385778,-49
4694.386679,-60
4694.387698,-43
4694.388677,-2
4694.389703,14
4694.390673,25
4694.391693,26
4694.392741,-7
4694.393662,-49
4694.394653,-80
4694.395676,-84
4694.396638,-64
4694.397643,-19
4694.39869,19
4694.399628,-18
4694.40059,-78
4694.401591,-97
4694.402644,-56
4694.403621,-4
4694.404584,-43
4694.405541,-142
4694.406582,-195
4694.407972,-187
4694.409774,-146
4694.409807,-107
4694.41054,-82
4694.411555,-57
4694.412535,-48
4694.413535,-92
4694.414503,-115
4694.415525,-100
4694.416517,-71
4694.417483,-40
4694.418509,6
4694.419487,52
4694.420749,27
4694.421544,-37
4694.422551,-48
4694.423484,-3
4694.424457,10
4694.425619,-4
4694.426424,-85
4694.427444,-136
4694.4284,-86
4694.42941,-26
4694.430399,-7
4694.431403,-29
4694.432369,-46
4694.433351,-75
4694.434409,-104
4694.435379,-104
4694.436384,-67
4694.437369,-33
4694.438352,-3
4694.43941,-5
4694.440388,-66
4694.441318,-120
4694.442318,-170
4694.443349,-214
4694.444304,-219
4694.445309,-164
4694.446334,-99
4694.447287,-72
4694.448262,-46
4694.449274,-38
4694.450256,-90
4694.451246,-122
4694.452322,-161
4694.453251,-169
4694.454239,-133
4694.455282,-113
4694.45632,-102
4694.4573,-73
4694.45819,-49
4694.459285,-41
4694.460212,-25
4694.46121,-27
4694.462201,-45
4694.463231,-35
4694.464187,-12
4694.46516,27
4694.466178,19
4694.46719,0
4694.468175,-5
4694.469126,4
4694.470276,8
4694.471221,-4
4694.472143,-26
4694.47312,-93
4694.474103,-134
4694.475112,-132
4694.476106,-112
4694.477074,-96
4694.478093,-102
4694.47908,-121
4694.480089,-135
4694.481063,-117
4694.482048,-77
4694.483072,-69
4694.484056,-79
4694.485023,-60
4694.48603,-23
4694.487035,-4
4694.488049,21
4694.489051,36
4694.490025,5
4694.491018,2
4694.492077,38
4694.493023,52
4694.494036,35
4694.494943,12
4694.496019,30
4694.497095,47
4694.497949,45
4694.498958,-45
4694.49994,-178
4694.501,-208
4694.502007,-161
4694.503013,-104
4694.503948,-88
4694.504906,-57
4694.505923,-56
4694.506889,-66
4694.507911,4
4694.508937,41
4694.509864,-5
4694.51093,-70
4694.511857,-92
4694.512842,-23
4694.513868,56
4694.514854,48
4694.51582,2
4694.516822,-29
4694.517819,-33
4694.518805,6
4694.519813,61
4694.520795,79
4694.521796,58
4694.522787,30
4694.523902,43
4694.524804,71
4694.525779,76
4694.526743,50
4694.528336,-10
4694.528776,-103
4694.529777,-175
4694.53085,-142
4694.531808,-50
4694.532738,13
4694.533731,10
4694.534703,-7
4694.535763,-42
4694.536651,-75
4694.537709,-78
4694.538672,-74
4694.539684,-93
4694.540737,-100
4694.54164,-74
4694.542654,-70
4694.543634,-82
4694.544627,-49
4694.545621,-10
4694.546636,2
4694.547625,-34
4694.54867,-55
4694.549645,-53
4694.550618,-54
4694.551615,-39
4694.55261,-7
4694.55362,8
4694.554649,17
4694.555526,21
4694.557415,-28
4694.557545,-92
4694.558521,-119
4694.559724,-117
4694.560531,-140
4694.561517,-171
4694.562514,-217
4694.563505,-242
4694.564522,-214
4694.565581,-186
4694.566497,-175
4694.56748,-156
4694.568501,-120
4694.569468,-70
4694.570473,-25
4694.571457,-31
4694.572498,-54
4694.573459,-76
4694.574455,-71
4694.575522,-53
4694.576425,-54
4694.577471,-59
4694.578517,-70
4694.579437,-96
4694.580416,-145
4694.581402,-150
4694.58239,-125
4694.58339,-101
4694.584376,-81
4694.585441,-39
4694.586432,-16
4694.587358,-22
4694.588333,-6
4694.589362,-6
4694.590368,-31
4694.591334,-52
4694.592425,-30
4694.593352,-27
4694.594302,-33
4694.595304,-30
4694.596287,-38
4694.597314,-35
4694.598408,-55
4694.599309,-93
4694.600295,-126
4694.601271,-152
4694.602224,-164
4694.603248,-134
4694.604228,-105
4694.605243,-92
4694.606223,-102
4694.607266,-131
4694.6082,-135
4694.609225,-155
4694.610198,-190
4694.611265,-215
4694.612185,-223
4694.613227,-224
4694.614218,-214
4694.615209,-164
4694.6162,-129
4694.61719,-116
4694.618181,-94
4694.619162,-57
4694.620144,-7
4694.621131,8
4694.622095,-15
4694.623094,-5
4694.624082,-9
4694.625528,-53
4694.626088,-87
4694.627115,-104
4694.6282,-108
4694.629041,-93
4694.63005,-85
4694.631012,-59
4694.632051,-74
4694.633021,-118
4694.634035,-141
4694.635032,-163
4694.63602,-150
4694.637259,-128
4694.638008,-100
4694.639003,-102
4694.64,-87
4694.640966,5
4694.642021,98
4694.642959,101
4694.643968,35
4694.644998,-14
4694.645965,-27
4694.646964,5
4694.648063,53
4694.648936,82
4694.649916,75
4694.650957,59
4694.651972,89
4694.652871,130
4694.653913,127
4694.654903,128
4694.655867,182
4694.656858,280
4694.657858,357
4694.658927,369
4694.659826,368
4694.660858,401
4694.661863,443
4694.662926,472
4694.663812,504
4694.664815,548
4694.66581,578
4694.666858,616
4694.667803,667
4694.668784,718
4694.669774,790
4694.671155,860
4694.671765,897
4694.672745,834
4694.673842,728
4694.674778,657
4694.67581,599
4694.676829,534
4694.677727,441
4694.678736,310
4694.679816,194
4694.680971,152
4694.681797,126
4694.682697,57
4694.683718,-47
4694.684673,-148
4694.685669,-227
4694.686669,-306
4694.687743,-357
4694.688639,-415
4694.689677,-518
4694.690771,-620
4694.691635,-651
4694.692652,-619
4694.693854,-572
4694.694641,-531
4694.695666,-531
4694.696635,-494
4694.697846,-405
4694.698617,-364
4694.699581,-392
4694.700582,-415
4694.701608,-399
4694.702581,-371
4694.70362,-374
4694.704871,-398
4694.705775,-413
4694.706533,-409
4694.707538,-373
4694.70852,-325
4694.709528,-323
4694.710534,-343
4694.711617,-341
4694.712651,-353
4694.713511,-348
4694.714481,-328
4694.715468,-290
4694.71653,-255
4694.71751,-226
4694.718671,-162
4694.719546,-84
4694.720455,-33
4694.721649,-16
4694.722438,-22
4694.723424,-67
4694.72439,-133
4694.725582,-174
4694.726386,-163
4694.72746,-116
4694.728426,-79
4694.729381,-68
4694.730379,-77
4694.731384,-106
4694.732362,-173
4694.733355,-207
4694.734378,-189
4694.735331,-131
4694.736501,-67
4694.737377,-48
4694.738444,-62
4694.739309,-78
4694.740404,-81
4694.741314,-67
4694.742317,-78
4694.743315,-115
4694.744326,-173
4694.745289,-216
4694.746289,-215
4694.74728,-193
4694.748236,-146
4694.74928,-103
4694.750236,-79
4694.751268,-70
4694.752209,-42
4694.753226,-39
4694.754197,-66
4694.755248,-95
4694.756242,-126
4694.757275,-134
4694.758199,-127
4694.759185,-136
4694.760187,-131
4694.761183,-122
4694.762136,-106
4694.763182,-109
4694.764154,-93
4694.765138,-59
4694.766127,-71
4694.767134,-78
4694.768156,-48
4694.769161,-6
4694.770091,67
4694.771347,75
4694.772108,12
4694.773107,-64
4694.774075,-84
4694.775123,-60
4694.776042,-47
4694.777052,-59
4694.778036,-70
4694.779089,-58
4694.780126,-45
4694.78105,-54
4694.782017,-2
4694.783367,69
4694.784021,72
4694.784999,69
4694.786088,59
4694.787034,35
4694.788019,-57
4694.788976,-157
4694.790002,-194
4694.791029,-181
4694.792025,-115
4694.792964,-84
4694.79396,-59
4694.794937,-21
4694.795993,-6
4694.79694,-10
4694.797911,-28
4694.799019,-50
4694.799898,-53
4694.800887,-49
4694.801866,-79
4694.8029,-109
4694.80387,-87
4694.80489,-21
4694.80588,40
4694.806843,57
4694.807837,79
4694.808837,112
4694.80982,122
4694.810793,99
4694.811798,65
4694.81282,28
4694.813829,-16
4694.814907,-52
4694.815832,-43
4694.816798,-9
4694.81785,-31
4694.818758,-83
4694.819792,-127
4694.820812,-152
4694.821772,-135
4694.822741,-108
4694.823804,-60
4694.824714,13
4694.825832,64
4694.826772,101
4694.827732,132
4694.828696,106
4694.829671,56
4694.830939,29
4694.831695,14
4694.832737,-34
4694.833696,-57
4694.834669,-38
4694.835662,-22
4694.836684,-15
4694.837782,29
4694.838673,55
4694.839655,33
4694.840645,23
4694.841644,28
4694.8426,31
4694.843618,27
4694.844766,23
4694.845585,38
4694.846589,80
4694.847621,127
4694.848644,139
4694.849578,134
4694.850731,128
4694.851534,134
4694.852574,143
4694.853589,125
4694.854532,114
4694.855539,116
4694.856534,92
4694.857556,81
4694.858599,71
4694.859478,59
4694.861373,71
4694.861873,77
4694.862705,32
4694.863544,-13
4694.864464,-2
4694.865459,73
4694.866487,143
4694.867455,152
4694.868424,124
4694.869505,96
4694.87041,96
4694.871442,77
4694.872424,28
4694.873443,6
4694.874408,61
4694.875522,147
4694.876392,205
4694.877445,237
4694.878385,199
4694.879381,138
4694.880391,89
4694.881373,52
4694.882462,31
4694.883376,12
4694.884394,12
4694.885336,60
4694.886463,110
4694.887343,121
4694.888337,128
4694.889357,145
4694.890384,150
4694.891276,171
4694.892401,155
4694.893465,68
4694.894374,0
4694.895303,3
4694.896256,-6
4694.897264,44
4694.898267,103
4694.899276,111
4694.90025,93
4694.901219,80
4694.902223,82
4694.903258,55
4694.904182,15
4694.90524,-22
4694.906221,-23
4694.907203,-7
4694.908336,9
4694.909162,-7
4694.910166,-32
4694.911193,-30
4694.912155,-29
4694.913186,-26
4694.914156,4
4694.915162,45
4694.916121,77
4694.917134,64
4694.918197,69
4694.919126,69
4694.920146,43
4694.921081,-21
4694.922115,-111
4694.92312,-187
4694.924069,-201
4694.925068,-152
4694.926103,-123
4694.927096,-120
4694.928179,-92
4694.929049,-109
4694.930026,-171
4694.931022,-207
4694.932046,-224
4694.93302,-212
4694.934024,-186
4694.935048,-173
4694.936133,-148
4694.937034,-132
4694.938,-118
4694.939144,-97
4694.940011,-59
4694.940948,-14
4694.942009,-19
4694.942958,-30
4694.94404,-48
4694.944933,-86
4694.946373,-99
4694.946902,-103
4694.948048,-123
4694.94896,-161
4694.949939,-205
4694.950908,-231
4694.951909,-228
4694.952885,-214
4694.95389,-204
4694.954888,-189
4694.956013,-198
4694.95704,-195
4694.957855,-183
4694.958851,-172
4694.959814,-164
4694.960835,-164
4694.96196,-165
4694.962855,-213
4694.963906,-290
4694.964808,-337
4694.966234,-375
4694.966825,-412
4694.967762,-414
4694.968745,-393
4694.969751,-370
4694.970754,-343
4694.97175,-300
4694.97279,-282
4694.973811,-245
4694.97475,-193
4694.975696,-166
4694.976708,-207
4694.977707,-267
4694.978717,-265
4694.979756,-223
4694.980719,-177
4694.98167,-120
4694.982761,-98
4694.983707,-119
4694.984737,-159
4694.985675,-195
4694.986674,-247
4694.98765,-256
4694.988693,-224
4694.989676,-205
4694.990649,-188
4694.991633,-189
4694.992603,-192
4694.993613,-198
4694.994593,-206
4694.995617,-245
4694.9966,-279
4694.997767,-277
4694.998567,-220
4694.999565,-160
4695.000559,-122
4695.001546,-103
4695.00254,-112
4695.003544,-151
4695.004588,-190
4695.005652,-242
4695.006509,-283
4695.007541,-258
4695.008555,-195
4695.009561,-168
4695.010614,-154
4695.011495,-134
4695.012523,-103
4695.013503,-72
4695.014519,-56
4695.015486,-62
4695.016514,-103
4695.017468,-142
4695.018465,-141
4695.019467,-155
4695.02054,-165
4695.021463,-185
4695.022479,-210
4695.023408,-170
4695.024609,-117
4695.025485,-131
4695.026377,-165
4695.027519,-180
4695.028389,-167
4695.029392,-142
4695.030414,-112
4695.031396,-75
4695.032363,-98
4695.03333,-158
4695.034369,-203
4695.035373,-224
4695.03637,-211
4695.037341,-140
4695.038529,-44
4695.039274,-20
4695.040385,-51
4695.041291,-86
4695.042341,-103
4695.043313,-142
4695.044298,-169
4695.045276,-160
4695.046372,-100
4695.047212,-53
4695.048255,-36
4695.049492,-30
4695.050248,-74
4695.05127,-121
4695.052219,-172
4695.053214,-249
4695.054223,-296
4695.055211,-260
4695.056211,-206
4695.057213,-155
4695.058173,-101
4695.059152,-65
4695.060171,-52
4695.061177,-47
4695.062148,-60
4695.063161,-108
4695.064142,-130
4695.065158,-99
4695.066123,-79
4695.067118,-57
4695.068104,-12
4695.069132,37
4695.070094,69
4695.0711,29
4695.07209,-39
4695.07311,-89
4695.074158,-132
4695.075162,-140
4695.076057,-134
4695.077082,-165
4695.078045,-199
4695.079096,-190
4695.080074,-164
4695.08108,-157
4695.08363,-167
4695.083664,-158
4695.084105,-115
4695.085046,-82
4695.086005,-85
4695.087059,-94
4695.087989,-69
4695.088998,-57
4695.090051,-64
4695.090955,-69
4695.092039,-63
4695.092958,-95
4695.093951,-148
4695.09514,-158
4695.095952,-140
4695.09694,-112
4695.097957,-80
4695.098926,-96
4695.099916,-121
4695.100896,-59
4695.101858,24
4695.102896,47
4695.103913,35
4695.104854,19
4695.106111,36
4695.10692,35
4695.107873,15
4695.108848,41
4695.109832,69
4695.110802,68
4695.111857,43
4695.112806,-23
4695.113825,-132
4695.114798,-190
4695.115795,-160
4695.116784,-135
4695.118037,-149
4695.118787,-206
4695.119768,-259
4695.120808,-234
4695.121767,-140
4695.122742,-77
4695.123778,-34
4695.124757,11
4695.125749,55
4695.126757,78
4695.1279,83
4695.129192,38
4695.129699,-22
4695.130708,-56
4695.131678,-69
4695.132685,-93
4695.133706,-80
4695.134663,-31
4695.135679,-24
4695.136674,-53
4695.137668,-47
4695.138619,-41
4695.13991,-77
4695.140666,-116
4695.141669,-156
4695.142617,-156
4695.143634,-130
4695.144621,-79
4695.145663,-37
4695.146613,-52
4695.1476,-68
4695.148592,-66
4695.149602,-58
4695.150564,-67
4695.151578,-54
4695.152581,-61
4695.153632,-57
4695.154535,-55
4695.155531,-97
4695.156579,-144
4695.157588,-130
4695.15858,-86
4695.15955,-95
4695.160521,-182
4695.161518,-202
4695.162515,-129
4695.163512,-57
4695.164509,-13
4695.165506,5
4695.166503,-27
4695.1675,-52
4695.168497,-31
4695.169494,-5
4695.170491,-4
4695.171488,-6
4695.172485,-28
4695.173482,-60
4695.174479,-50
4695.175476,-13
4695.176473,11
4695.17747,-10
4695.178467,-30
4695.179464,-33
4695.180461,-12
4695.181458,11
4695.182455,-14
4695.183452,-52
4695.184449,-78
4695.185446,-94
4695.186443,-97
4695.18744,-110
4695.188437,-105
4695.189894,-67
4695.190451,-74
4695.191281,-95
4695.192324,-65
4695.193446,-47
4695.194315,-58
4695.195279,-66
4695.196266,-22
4695.197229,49
4695.198253,55
4695.199705,27
4695.200237,27
4695.201229,21
4695.202297,-18
4695.203189,-46
4695.204211,-64
4695.205214,-65
4695.206186,-39
4695.207308,-16
4695.208173,-16
4695.209194,-73
4695.210217,-102
4695.211163,-99
4695.212141,-90
4695.213166,-92
4695.214133,-89
4695.215103,-93
4695.216111,-119
4695.217124,-113
4695.218115,-90
4695.21912,-73
4695.220092,-70
4695.221172,-43
4695.22212,8
4695.22305,21
4695.224116,49
4695.225106,88
4695.226165,72
4695.227063,57
4695.228152,23
4695.229033,-36
4695.230029,-63
4695.231014,-70
4695.231987,-114
4695.232995,-202
4695.234008,-255
4695.235008,-213
4695.235991,-135
4695.237001,-95
4695.238066,-82
4695.239099,-53
4695.239966,-36
4695.240991,-38
4695.242031,-51
4695.242938,-57
4695.243917,-38
4695.244957,-36
4695.245914,-51
4695.246922,-72
4695.248169,-62
4695.248898,-40
4695.2499,-11
4695.250876,22
4695.251863,-14
4695.252854,-84
4695.253893,-106
4695.254891,-106
4695.255921,-113
4695.257018,-142
4695.257921,-140
4695.258835,-71
4695.259821,-17
4695.260877,-26
4695.261889,-92
4695.262837,-130
4695.263803,-111
4695.26478,-101
4695.265769,-123
4695.266767,-135
4695.267765,-115
4695.268742,-43
4695.269775,41
4695.270722,106
4695.272013,123
4695.273371,86
4695.273808,39
4695.274747,16
4695.275735,-15
4695.276697,-60
4695.277698,-111
4695.278694,-127
4695.279697,-115
4695.280716,-30
4695.281669,77
4695.282674,116
4695.283639,87
4695.284676,27
4695.285658,-13
4695.286691,-33
4695.287651,-49
4695.288606,-56
4695.289609,-69
4695.290618,-58
4695.291606,-7
4695.292664,32
4695.293576,26
4695.294606,19
4695.295582,-4
4695.296606,-36
4695.29758,-31
4695.298583,-17
4695.299562,-15
4695.300735,31
4695.301558,86
4695.302542,85
4695.303628,68
4695.304716,41
4695.306571,30
4695.306851,-7
4695.307593,-2
4695.308595,29
4695.309496,-5
4695.310531,-12
4695.31147,18
4695.312476,27
4695.313454,11
4695.314472,-14
4695.315417,-31
4695.316442,-63
4695.317408,-99
4695.318425,-98
4695.319455,-106
4695.320477,-110
4695.321417,-102
4695.322417,-90
4695.323394,-79
4695.324429,-61
4695.325441,-25
4695.326372,10
4695.327369,9
4695.328338,4
4695.329328,-23
4695.330341,-46
4695.331313,-45
4695.332331,-54
4695.333328,-48
4695.334319,-19
4695.335281,25
4695.336313,59
4695.337292,47
4695.338282,13
4695.339443,-43
4695.340337,-80
4695.341256,-70
4695.342259,-64
4695.343265,-94
4695.344271,-127
4695.345278,-143
4695.346284,-160
4695.347291,-174
4695.348297,-171
4695.349304,-139
4695.35031,-85
4695.351316,-38
4695.352323,-39
4695.353329,-63
4695.354336,-63
4695.355342,-55
4695.356349,-39
4695.357355,-11
4695.358144,12
4695.359131,46
4695.360156,64
4695.361167,33
4695.362199,-14
4695.363206,-53
4695.364161,-65
4695.365238,-92
4695.366125,-147
4695.367209,-195
4695.368077,-188
4695.369106,-144
4695.37006,-93
4695.371069,-95
4695.372032,-129
4695.373077,-111
4695.37404,-67
4695.375102,-30
4695.376042,-8
4695.37704,13
4695.378024,22
4695.379025,14
4695.379999,-5
4695.381025,-19
4695.381998,-25
4695.383017,-15
4695.384007,4
4695.384992,4
4695.385984,-45
4695.386985,-118
4695.387972,-144
4695.388957,-93
4695.389926,-34
4695.390922,-23
4695.391965,-71
4695.392951,-127
4695.39391,-138
4695.394924,-106
4695.395906,-47
4695.396883,-3
4695.397924,34
4695.398891,58
4695.399907,59
4695.400845,70
4695.401875,24
4695.402929,-76
4695.403898,-162
4695.404837,-177
4695.405846,-160
4695.406796,-126
4695.407881,-93
4695.408811,-82
4695.409886,-69
4695.410803,-40
4695.412131,-30
4695.412908,-31
4695.41517,-64
4695.415282,-96
4695.416606,-84
4695.416777,-80
4695.417738,-77
4695.418781,-38
4695.419751,-13
4695.420774,-15
4695.42173,-4
4695.422716,-16
4695.423722,3
4695.424683,60
4695.425891,101
4695.426685,142
4695.427719,154
4695.42868,150
4695.429627,127
4695.431963,118
4695.432721,105
4695.432765,54
4695.433692,45
4695.434669,104
4695.43563,207
4695.436613,284
4695.437631,345
4695.438679,402
4695.439596,470
4695.440613,555
4695.441583,619
4695.442588,612
4695.443572,581
4695.444624,601
4695.445534,638
4695.446537,668
4695.447537,691
4695.448529,731
4695.449735,804
4695.450555,875
4695.451536,907
4695.452564,881
4695.453522,828
4695.454544,788
4695.455518,749
4695.456493,686
4695.457525,617
4695.458528,561
4695.459485,538
4695.461073,493
4695.461445,401
4695.462421,257
4695.463455,76
4695.464459,-120
4695.465436,-265
4695.466444,-309
4695.467388,-286
4695.468434,-288
4695.469442,-336
4695.470434,-376
4695.471408,-407
4695.472367,-436
4695.473366,-458
4695.474353,-475
4695.475354,-498
4695.476339,-508
4695.477362,-516
4695.478381,-506
4695.479287,-427
4695.4803,-385
4695.481315,-415
4695.482296,-415
4695.483292,-410
4695.484347,-397
4695.485285,-364
4695.486297,-316
4695.487359,-287
4695.488298,-243
4695.489246,-204
4695.490415,-172
4695.491254,-203
4695.492272,-254
4695.493235,-262
4695.494246,-210
4695.495267,-163
4695.496215,-150
4695.497212,-161
4695.498214,-182
4695.499404,-168
4695.500271,-132
4695.501215,-116
4695.502184,-98
4695.50315,-72
4695.504165,-88
4695.505175,-114
4695.506154,-126
4695.507332,-109
4695.508163,-50
4695.509134,-24
4695.510122,-55
4695.511112,-82
4695.512141,-104
4695.513089,-149
4695.514072,-186
4695.515114,-239
4695.516102,-275
4695.517078,-252
4695.518096,-186
4695.519321,-104
4695.520047,-28
4695.521062,-13
4695.522057,-45
4695.523091,-69
4695.524175,-88
4695.525065,-73
4695.526011,-33
4695.526988,-11
4695.528033,29
4695.528992,55
4695.530034,52
4695.531173,31
4695.531987,29
4695.532966,22
4695.53402,26
4695.534955,27
4695.535929,15
4695.536949,-17
4695.537933,-66
4695.538919,-100
4695.5399,-120
4695.540904,-110
4695.541926,-89
4695.542922,-75
4695.543893,-62
4695.5449,-61
4695.545887,-62
4695.546911,-15
4695.547851,48
4695.548825,42
4695.549852,-24
4695.550848,-59
4695.551824,-41
4695.552837,1
4695.553813,47
4695.554798,81
4695.555812,66
4695.556792,43
4695.557786,35
4695.558782,23
4695.559783,-10
4695.560741,-29
4695.561739,-29
4695.562745,-13
4695.563698,12
4695.564746,42
4695.565884,38
4695.566711,-8
4695.567727,-64
4695.568726,-87
4695.569686,-67
4695.5707,-58
4695.571665,-97
4695.572662,-132
4695.573677,-134
4695.574654,-93
4695.575628,-19
4695.576647,15
4695.577845,12
4695.578678,34
4695.579678,43
4695.580629,50
4695.581661,36
4695.582604,-1
4695.583567,-52
4695.58461,-74
4695.585594,-16
4695.586647,57
4695.587728,80
4695.588808,83
4695.589641,79
4695.590607,39
4695.591572,6
4695.592604,35
4695.593566,60
4695.594553,58
4695.595541,58
4695.596573,68
4695.597517,110
4695.59852,131
4695.599628,99
4695.60058,33
4695.601534,-5
4695.602559,3
4695.603536,14
4695.604515,3
4695.605438,20
4695.606528,39
4695.607478,64
4695.608495,112
4695.609425,152
4695.610587,139
4695.611418,85
4695.612429,23
4695.613382,6
4695.614403,-2
4695.6154,-39
4695.616403,-18
4695.61736,32
4695.618367,76
4695.619394,109
4695.62035,106
4695.621368,96
4695.622411,82
4695.623446,85
4695.624444,99
4695.625321,103
4695.626348,146
4695.627334,192
4695.628348,205
4695.629304,196
4695.630366,170
4695.631314,107
4695.632388,56
4695.633293,16
4695.634273,44
4695.635311,126
4695.636283,155
4695.63724,133
4695.638222,109
4695.639215,115
4695.64026,150
4695.641287,192
4695.642207,213
4695.643223,187
4695.644184,136
4695.645253,124
4695.646217,155
4695.647174,177
4695.648161,180
4695.649212,119
4695.650163,51
4695.651148,41
4695.652142,55
4695.653178,59
4695.654147,84
4695.655178,125
4695.656102,103
4695.657168,19
4695.658126,0
4695.659125,29
4695.660103,52
4695.661084,66
4695.662137,81
4695.663103,73
4695.664075,99
4695.665245,120
4695.666026,139
4695.667159,147
4695.668071,150
4695.669047,136
4695.670018,113
4695.671026,118
4695.672001,177
4695.672995,231
4695.674028,251
4695.675048,228
4695.676356,183
4695.676993,150
4695.678039,154
4695.679003,148
4695.680075,143
4695.680969,169
4695.681941,186
4695.682933,153
4695.683929,108
4695.68495,62
4695.685954,4
4695.68695,-27
4695.688415,-38
4695.68894,2
4695.689905,70
4695.690908,105
4695.691972,103
4695.692867,67
4695.693883,75
4695.695123,130
4695.695882,139
4695.696902,86
4695.697919,29
4695.698854,-12
4695.69983,1
4695.700802,23
4695.701823,14
4695.702815,-12
4695.703823,-12
4695.704872,-17
4695.705826,-22
4695.706823,-12
4695.707768,51
4695.709015,73
4695.709847,47
4695.710768,48
4695.711752,42
4695.712744,24
4695.713721,18
4695.714712,15
4695.715777,20
4695.716725,34
4695.71771,-19
4695.718746,-110
4695.719711,-166
4695.720685,-159
4695.721664,-134
4695.722669,-125
4695.723765,-90
4695.724642,-74
4695.725652,-118
4695.726664,-152
4695.727639,-131
4695.728639,-77
4695.72968,-77
4695.730627,-80
4695.731645,-81
4695.732965,-127
4695.733681,-179
4695.734586,-186
4695.735608,-163
4695.736571,-151
4695.737568,-184
4695.738543,-238
4695.739586,-273
4695.740585,-285
4695.741648,-271
4695.742565,-241
4695.743547,-222
4695.744542,-190
4695.74559,-195
4695.746498,-213
4695.747541,-200
4695.748539,-210
4695.749473,-240
4695.750496,-223
4695.751467,-197
4695.752476,-179
4695.753452,-152
4695.75447,-112
4695.75546,-73
4695.756494,-35
4695.75744,-57
4695.758479,-110
4695.759497,-134
4695.760394,-171
4695.761425,-179
4695.76238,-161
4695.763421,-160
4695.764395,-162
4695.765377,-172
4695.76637,-183
4695.767358,-163
4695.768354,-143
4695.769363,-124
4695.770377,-104
4695.771323,-104
4695.772338,-79
4695.773366,-34
4695.774295,-26
4695.775337,-60
4695.776281,-134
4695.777399,-204
4695.778296,-244
4695.779303,-232
4695.780287,-193
4695.781326,-169
4695.782306,-162
4695.783265,-165
4695.78424,-135
4695.785345,-86
4695.786234,-44
4695.787211,-37
4695.788231,-48
4695.789223,-75
4695.790178,-50
4695.791257,-18
4695.792338,-15
4695.793586,14
4695.794257,48
4695.795173,32
4695.79616,0
4695.797259,-56
4695.798151,-120
4695.799162,-163
4695.800164,-187
4695.801127,-190
4695.80213,-187
4695.80316,-197
4695.804115,-196
4695.80511,-190
4695.806108,-186
4695.807174,-185
4695.808125,-123
4695.809086,-68
4695.810087,-54
4695.811087,-116
4695.812092,-176
4695.813063,-181
4695.814141,-144
4695.815141,-113
4695.81603,-133
4695.817053,-155
4695.818062,-116
4695.819034,-78
4695.820015,-70
4695.820984,-84
4695.822003,-91
4695.822991,-71
4695.824028,-25
4695.825043,56
4695.825957,107
4695.826957,122
4695.827964,132
4695.828947,100
4695.829984,58
4695.830926,72
4695.831958,59
4695.832942,-1
4695.833906,-34
4695.834934,-56
4695.836003,-59
4695.836894,-88
4695.837982,-122
4695.838876,-117
4695.839886,-90
4695.840911,-46
4695.842084,-11
4695.842844,-20
4695.843922,-26
4695.844846,-71
4695.84585,-80
4695.846978,-25
4695.847842,-5
4695.848826,-2
4695.849823,-37
4695.850786,-132
4695.851798,-194
4695.852791,-178
4695.853764,-164
4695.854786,-168
4695.857049,-154
4695.857218,-107
4695.85789,-46
4695.858812,-20
4695.859889,-27
4695.86137,-54
4695.861736,-71
4695.862708,-60
4695.863741,-40
4695.864749,-9
4695.865711,-13
4695.866722,-41
4695.867689,-56
4695.868664,-34
4695.869634,-27
4695.870658,-40
4695.871702,-52
4695.872694,-86
4695.873755,-108
4695.874657,-63
4695.875636,27
4695.876603,84
4695.877641,57
4695.878628,-12
4695.879646,-67
4695.880623,-33
4695.881631,41
4695.882879,87
4695.88358,88
4695.884576,44
4695.885553,-38
4695.886542,-80
4695.887577,-64
4695.888714,-63
4695.889533,-100
4695.890576,-125
4695.891603,-72
4695.892568,10
4695.893524,70
4695.894565,76
4695.895808,44
4695.89648,3
4695.897499,-26
4695.898515,-18
4695.899453,-60
4695.90048,-100
4695.901466,-77
4695.902433,-44
4695.903547,-22
4695.904561,-27
4695.905541,-66
4695.906534,-94
4695.907436,-85
4695.908442,-55
4695.909419,-40
4695.910488,-4
4695.911424,24
4695.912368,-29
4695.913402,-79
4695.914373,-59
4695.915451,1
4695.91661,16
4695.91739,-22
4695.918392,-30
4695.919409,-17
4695.920396,-1
4695.921338,-2
4695.922314,-60
4695.923373,-115
4695.924301,-89
4695.925321,-27
4695.926312,-22
4695.927485,-70
4695.928332,-123
4695.929281,-168
4695.930265,-190
4695.931307,-180
4695.93225,-144
4695.933261,-103
4695.93424,-20
4695.935257,119
4695.936253,168
4695.937255,114
4695.938281,61
4695.939333,61
4695.940301,71
4695.941228,47
4695.942266,37
4695.94317,80
4695.944183,103
4695.945166,106
4695.94639,125
4695.947201,149
4695.948152,114
4695.94917,31
4695.950154,-72
4695.9512,-104
4695.952137,-86
4695.953133,-66
4695.954126,-80
4695.955068,-109
4695.956082,-91
4695.957184,-17
4695.958072,60
4695.959037,94
4695.96007,91
4695.96104,101
4695.962055,120
4695.963041,109
4695.964024,144
4695.965038,176
4695.966025,164
4695.967013,107
4695.968063,54
4695.969023,22
4695.969997,-9
4695.970976,-45
4695.971966,-88
4695.972952,-119
4695.974064,-103
4695.974943,-79
4695.975933,-84
4695.976942,-104
4695.977965,-131
4695.978947,-141
4695.979962,-121
4695.980932,-43
4695.981918,30
4695.98292,43
4695.983959,30
4695.985089,35
4695.985907,10
4695.986875,-89
4695.987838,-156
4695.988837,-137
4695.989849,-73
4695.990843,-8
4695.991856,37
4695.99282,18
4695.993814,-25
4695.99493,-65
4695.99581,-76
4695.99684,-34
4695.997812,26
4695.998843,18
4695.999798,-11
4696.000798,-27
4696.001768,-77
4696.002751,-58
4696.003736,1
4696.004748,47
4696.006086,51
4696.006728,9
4696.007734,-28
4696.008695,-13
4696.009701,4
4696.010693,-3
4696.011777,-26
4696.012709,-36
4696.01368,-25
4696.014676,-38
4696.015696,-51
4696.016661,-52
4696.017633,-42
4696.01866,-50
4696.019655,-55
4696.020618,-57
4696.021629,-18
4696.022607,20
4696.023667,12
4696.02463,-8
4696.025624,7
4696.026605,6
4696.02757,11
4696.028721,30
4696.029646,41
4696.030569,51
4696.031573,53
4696.032556,50
4696.033563,56
4696.034555,67
4696.035562,51
4696.03651,53
4696.037505,74
4696.038524,67
4696.039472,23
4696.040509,-9
4696.041503,-20
4696.042557,-10
4696.04347,42
4696.044475,41
4696.04546,17
4696.046485,24
4696.047454,18
4696.048429,10
4696.049439,-15
4696.050444,-46
4696.051408,-28
4696.052423,1
4696.053433,17
4696.0544,48
4696.055422,109
4696.056381,132
4696.057428,117
4696.058421,57
4696.05938,-7
4696.060408,-36
4696.061364,-64
4696.062371,-68
4696.0635,-32
4696.064377,4
4696.06534,18
4696.066315,26
4696.067317,-7
4696.068292,-17
4696.069294,-9
4696.070308,-16
4696.07134,-28
4696.072272,-83
4696.073417,-129
4696.07436,-102
4696.075258,0
4696.076239,76
4696.077233,78
4696.078324,74
4696.079232,51
4696.08028,21
4696.081188,9
4696.08231,-13
4696.083255,-44
4696.08426,-47
4696.08526,-13
4696.086206,40
4696.087225,59
4696.088258,27
4696.089199,11
4696.090302,34
4696.09117,45
4696.092223,8
4696.093195,-53
4696.094201,-85
4696.095161,-90
4696.09614,-81
4696.097333,-49
4696.098321,-14
4696.099253,-9
4696.100085,-36
4696.10109,-28
4696.102078,20
4696.103081,18
4696.104058,-26
4696.105235,-37
4696.106118,5
4696.107185,37
4696.108037,55
4696.109059,72
4696.110061,74
4696.111027,49
4696.112039,-3
4696.112993,-31
4696.113984,6
4696.114983,49
4696.116013,5
4696.11705,-55
4696.117979,-74
4696.119048,-73
4696.119999,-88
4696.120943,-79
4696.12198,-16
4696.122944,69
4696.123969,131
4696.124997,125
4696.12599,105
4696.127012,110
4696.12794,126
4696.128908,122
4696.129936,109
4696.130934,87
4696.131901,45
4696.132884,-13
4696.134196,-35
4696.134852,-5
4696.135875,27
4696.136823,42
4696.137899,67
4696.138835,76
4696.139875,24
4696.141151,3
4696.141948,15
4696.142913,4
4696.143962,-23
4696.144882,-30
4696.145772,7
4696.146949,30
4696.14782,12
4696.148794,16
4696.149782,24
4696.15087,30
4696.151765,38
4696.152787,33
4696.153794,45
4696.154927,54
4696.155753,48
4696.156745,76
4696.157749,132
4696.158785,177
4696.159936,149
4696.160766,88
4696.161707,60
4696.162706,55
4696.163717,48
4696.164679,72
4696.165672,91
4696.166678,106
4696.167666,153
4696.168651,206
4696.169665,218
4696.170645,156
4696.17165,98
4696.172628,67
4696.173628,42
4696.174649,4
4696.17567,-24
4696.176589,-10
4696.177655,-23
4696.178747,-74
4696.17963,-52
4696.180624,-37
4696.181562,-61
4696.182563,-69
4696.183557,-27
4696.184586,13
4696.185527,5
4696.186519,-20
4696.187511,-6
4696.188611,6
4696.189524,-13
4696.190527,-70
4696.191567,-108
4696.19249,-87
4696.193525,-49
4696.194561,-40
4696.195491,-55
4696.196466,-64
4696.197442,-59
4696.198477,-5
4696.199432,72
4696.200428,88
4696.201416,37
4696.20245,-46
4696.203465,-70
4696.204463,-43
4696.205413,-37
4696.206457,-22
4696.207453,29
4696.208407,49
4696.209409,18
4696.210353,-16
4696.211361,-22
4696.212346,-2
4696.21356,3
4696.214353,-31
4696.215353,-60
4696.216592,-79
4696.217362,-44
4696.21831,-20
4696.219332,-15
4696.220608,31
4696.221279,71
4696.222392,69
4696.223378,65
4696.224248,34
4696.225361,-34
4696.22625,-61
4696.227272,-31
4696.228231,8
4696.229258,29
4696.230245,71
4696.23133,127
4696.232251,144
4696.233209,63
4696.234195,-32
4696.235159,-92
4696.236176,-139
4696.237175,-148
4696.23819,-98
4696.23918,-68
4696.240155,-44
4696.241165,21
4696.242409,96
4696.243171,125
4696.244127,80
4696.245138,14
4696.246127,-11
4696.247162,12
4696.248112,25
4696.249107,19
4696.250091,36
4696.251288,17
4696.252092,-25
4696.253255,-34
4696.254158,-27
4696.255098,0
4696.256219,29
4696.257541,55
4696.258094,76
4696.259078,78
4696.260034,23
4696.261038,-25
4696.262028,-32
4696.263,-40
4696.264001,-31
4696.265009,-30
4696.265993,-40
4696.267035,-62
4696.267982,-82
4696.268975,-93
4696.269949,-129
4696.270985,-150
4696.271983,-133
4696.272991,-133
4696.273983,-123
4696.27495,-41
4696.275928,62
4696.276926,156
4696.277913,231
4696.278921,273
4696.27992,281
4696.280908,284
4696.281887,264
4696.285083,212
4696.285304,186
4696.285526,199
4696.2859,245
4696.286868,295
4696.287848,335
4696.288916,340
4696.289883,358
4696.290865,412
4696.291842,502
4696.292822,554
4696.293821,533
4696.294886,526
4696.295792,618
4696.296786,739
4696.298433,841
4696.298785,927
4696.299788,974
4696.300778,1032
4696.301767,1060
4696.302751,1057
4696.303773,1040
4696.30476,1020
4696.305711,980
4696.306702,909
4696.307679,809
4696.308808,697
4696.309694,585
4696.310682,463
4696.311714,328
4696.312678,226
4696.313698,133
4696.314767,19
4696.315735,-97
4696.316683,-209
4696.317658,-284
4696.31864,-331
4696.320042,-336
4696.320671,-321
4696.321596,-335
4696.322669,-358
4696.323632,-357
4696.324612,-324
4696.325603,-298
4696.326625,-321
4696.327584,-362
4696.328571,-372
4696.329558,-358
4696.330776,-328
4696.331562,-326
4696.332529,-337
4696.333579,-325
4696.334549,-283
4696.335589,-236
4696.336515,-189
4696.337557,-178
4696.338544,-190
4696.33956,-208
4696.340508,-203
4696.341519,-215
4696.342491,-231
4696.343467,-219
4696.344468,-213
4696.34558,-245
4696.346445,-249
4696.347464,-203
4696.348659,-137
4696.349569,-66
4696.350445,24
4696.351482,63
4696.35243,15
4696.353569,-46
4696.354405,-92
4696.355413,-144
4696.356395,-161
4696.357428,-119
4696.358392,-64
4696.359427,-44
4696.360424,-69
4696.361388,-89
4696.362382,-69
4696.36336,-31
4696.364341,-32
4696.36533,-62
4696.366344,-83
4696.367328,-80
4696.368313,-78
4696.36931,-90
4696.370285,-109
4696.371303,-117
4696.372293,-89
4696.37333,-42
4696.374275,13
4696.375308,29
4696.376261,16
4696.377273,22
4696.37837,18
4696.379315,-10
4696.380241,-37
4696.38123,-30
4696.382236,-14
4696.383255,8
4696.384232,30
4696.385207,48
4696.386169,46
4696.387384,6
4696.388203,-32
4696.3892,-36
4696.390183,-36
4696.39116,-32
4696.392197,8
4696.393177,6
4696.394157,-23
4696.395208,-16
4696.39617,13
4696.39714,15
4696.398151,-11
4696.39953,-50
4696.400165,-79
4696.401106,-88
4696.402104,-67
4696.403072,-33
4696.404066,-14
4696.405082,-4
4696.40605,-7
4696.407058,-18
4696.40811,-23
4696.409132,-31
4696.410019,-61
4696.411293,-91
4696.412016,-104
4696.413065,-106
4696.414002,-43
4696.415033,18
4696.416011,47
4696.417034,43
4696.418012,40
4696.418973,33
4696.419963,58
4696.4211,98
4696.42197,142
4696.42343,167
4696.424049,169
4696.424983,177
4696.425972,176
4696.426963,155
4696.428088,125
4696.428924,70
4696.429974,32
4696.430943,30
4696.431975,40
4696.432883,27
4696.433911,-11
4696.434869,-36
4696.435873,-23
4696.436888,3
4696.437848,36
4696.438858,69
4696.439897,108
4696.440825,139
4696.441916,120
4696.442962,77
4696.444384,47
4696.444837,58
4696.445792,83
4696.44678,128
4696.447782,166
4696.448772,168
4696.449814,183
4696.450788,166
4696.451792,105
4696.45277,-5
4696.453812,-81
4696.454732,-63
4696.45586,-8
4696.45681,25
4696.457831,60
4696.458716,103
4696.459688,100
4696.460752,94
4696.461711,147
4696.462693,156
4696.463707,120
4696.464695,108
4696.465698,79
4696.466652,83
4696.467648,146
4696.469031,203
4696.469681,195
4696.470668,167
4696.471681,142
4696.472697,108
4696.473676,115
4696.474646,142
4696.475656,142
4696.476598,149
4696.477601,132
4696.478576,85
4696.479892,88
4696.480584,115
4696.481583,96
4696.482579,82
4696.483582,86
4696.48454,80
4696.485587,56
4696.48654,74
4696.487539,92
4696.488551,83
4696.489696,67
4696.490516,84
4696.491565,160
4696.492527,222
4696.493531,223
4696.494517,173
4696.495475,125
4696.496503,125
4696.497461,145
4696.498446,154
4696.499441,189
4696.500457,206
4696.50156,206
4696.502435,203
4696.503498,193
4696.504478,184
4696.505513,166
4696.50644,165
4696.507425,153
4696.508408,146
4696.509429,119
4696.510365,100
4696.511387,86
4696.512395,94
4696.513362,133
4696.514366,168
4696.515321,182
4696.516349,149
4696.517341,103
4696.518347,97
4696.519473,149
4696.520329,212
4696.521317,232
4696.522379,229
4696.523302,254
4696.524302,267
4696.525409,244
4696.52629,207
4696.527337,187
4696.528248,172
4696.529266,164
4696.530265,187
4696.531253,232
4696.532252,250
4696.533221,199
4696.534242,108
4696.535216,82
4696.536219,117
4696.537345,178
4696.53821,227
4696.539178,204
4696.540183,145
4696.541203,105
4696.542186,67
4696.543203,43
4696.544166,74
4696.545152,77
4696.546155,33
4696.547117,24
4696.548112,26
4696.549137,-6
4696.550109,-26
4696.55112,28
4696.552131,113
4696.553111,103
4696.554111,62
4696.55511,56
4696.556093,83
4696.557122,131
4696.558075,135
4696.559086,134
4696.560069,134
4696.561053,116
4696.562083,71
4696.563078,10
4696.564086,-48
4696.564993,-103
4696.566061,-150
4696.567008,-183
4696.568016,-171
4696.569005,-113
4696.570023,-39
4696.570961,4
4696.572137,-19
4696.573005,-94
4696.573987,-139
4696.574961,-129
4696.575951,-113
4696.576928,-112
4696.577934,-114
4696.578937,-112
4696.579939,-114
4696.580903,-142
4696.581913,-172
4696.582882,-172
4696.583934,-150
4696.584871,-129
4696.585884,-106
4696.586858,-80
4696.587859,-42
4696.588859,-15
4696.589822,-45
4696.590847,-79
4696.591846,-107
4696.592876,-116
4696.593881,-111
4696.594824,-144
4696.595806,-186
4696.596811,-176
4696.597895,-140
4696.598845,-137
4696.599785,-149
4696.600796,-163
4696.601765,-155
4696.602778,-144
4696.603761,-154
4696.604752,-154
4696.605729,-119
4696.606744,-76
4696.607737,-54
4696.608699,-29
4696.609685,0
4696.610728,0
4696.61171,-51
4696.612719,-115
4696.61368,-177
4696.614716,-199
4696.615671,-186
4696.616778,-173
4696.617669,-161
4696.618695,-148
4696.619671,-175
4696.620653,-210
4696.621614,-238
4696.622685,-238
4696.623745,-167
4696.624699,-90
4696.625609,-81
4696.626617,-88
4696.627597,-94
4696.628636,-105
4696.629588,-115
4696.63058,-108
4696.631582,-106
4696.632586,-113
4696.63359,-132
4696.634543,-122
4696.635799,-86
4696.636647,-46
4696.637521,-32
4696.638563,-30
4696.639539,-35
4696.640548,-35
4696.641585,-57
4696.642538,-81
4696.643573,-97
4696.644527,-135
4696.645583,-167
4696.646479,-135
4696.647476,-61
4696.64846,4
4696.649459,33
4696.650434,32
4696.651456,32
4696.652416,62
4696.65341,105
4696.654416,86
4696.655455,21
4696.656401,-58
4696.657402,-82
4696.658455,-97
4696.659587,-131
4696.660393,-168
4696.661423,-187
4696.662362,-201
4696.663468,-219
4696.664386,-214
4696.665365,-185
4696.666402,-140
4696.667343,-94
4696.668384,-59
4696.669336,-62
4696.670291,-95
4696.671291,-93
4696.672292,-84
4696.673304,-67
4696.674331,-22
4696.675292,-3
4696.676267,-5
4696.677255,-58
4696.678287,-90
4696.679251,-114
4696.680237,-138
4696.681232,-154
4696.682343,-178
4696.683311,-177
4696.684221,-135
4696.68521,-63
4696.686221,-25
4696.687212,-24
4696.688193,-33
4696.689206,-26
4696.690228,29
4696.691194,55
4696.692161,58
4696.693178,33
4696.694347,-7
4696.695149,3
4696.696163,10
4696.697148,-2
4696.698392,-38
4696.699142,-59
4696.700174,-60
4696.701106,-94
4696.702101,-114
4696.703075,-59
4696.704085,2
4696.705052,48
4696.706055,98
4696.707147,71
4696.708073,-7
4696.709058,-53
4696.710005,-54
4696.711031,-24
4696.712072,-15
4696.713036,-16
4696.714019,-16
4696.715307,-10
4696.716015,7
4696.717059,17
4696.717985,-11
4696.718972,-45
4696.719969,-43
4696.720961,-44
4696.721989,-43
4696.723023,-54
4696.724033,-70
4696.725074,-47
4696.72602,-2
4696.726987,44
4696.727898,84
4696.729102,67
4696.729857,-20
4696.730893,-60
4696.73189,-55
4696.732875,-47
4696.733864,-88
4696.734856,-100
4696.735903,-93
4696.73711,-106
4696.737978,-111
4696.738869,-90
4696.739794,-55
4696.740803,-21
4696.741814,1
4696.74283,-16
4696.743802,-44
4696.744873,-62
4696.745796,-97
4696.746851,-146
4696.748123,-146
4696.748753,-117
4696.749787,-101
4696.750806,-86
4696.751768,-42
4696.752742,12
4696.753777,47
4696.754766,80
4696.755732,81
4696.756743,40
4696.757731,31
4696.758743,38
4696.759948,22
4696.760698,29
4696.761668,69
4696.762693,91
4696.763679,50
4696.764699,-3
4696.765693,-43
4696.766655,-60
4696.767696,-46
4696.768616,-16
4696.769624,-21
4696.77067,-50
4696.771603,-93
4696.772609,-123
4696.773672,-116
4696.774615,-97
4696.77561,-80
4696.776603,-61
4696.77757,-51
4696.778536,-59
4696.779561,-68
4696.780559,-41
4696.781559,-16
4696.782647,-5
4696.783528,-6
4696.7846,4
4696.785517,14
4696.78657,30
4696.787528,21
4696.788586,24
4696.789493,21
4696.790694,17
4696.791528,47
4696.792477,85
4696.793513,89
4696.794495,89
4696.795478,68
4696.796459,-1
4696.797513,-70
4696.798427,-131
4696.799448,-181
4696.800445,-188
4696.801429,-169
4696.802414,-153
4696.803527,-135
4696.804378,-125
4696.805392,-112
4696.806374,-62
4696.807509,14
4696.808369,45
4696.809383,30
4696.810379,24
4696.811341,13
4696.812353,22
4696.813301,25
4696.814354,-21
4696.815334,-80
4696.816354,-99
4696.817317,-74
4696.818337,-41
4696.819351,-67
4696.820317,-102
4696.8213,-103
4696.822268,-86
4696.823331,-60
4696.824292,-59
4696.825298,-65
4696.826301,-49
4696.827297,-50
4696.82823,-49
4696.82926,-45
4696.830251,-43
4696.831246,-18
4696.832226,7
4696.833212,-10
4696.834207,-24
4696.835242,-23
4696.836287,-11
4696.837203,6
4696.838257,32
4696.839227,55
4696.84018,66
4696.841219,101
4696.842214,148
4696.843228,163
4696.844222,123
4696.845132,69
4696.846125,26
4696.84716,-17
4696.84811,-46
4696.849107,-62
4696.850116,-63
4696.851199,-59
4696.852086,-48
4696.853143,-69
4696.854074,-76
4696.855068,-91
4696.856057,-121
4696.857133,-134
4696.858113,-101
4696.859031,-62
4696.860009,-41
4696.861039,-14
4696.862023,4
4696.863214,15
4696.864011,8
4696.865047,-16
4696.866001,-31
4696.866992,-82
4696.867979,-92
4696.868953,-54
4696.870003,-23
4696.870971,-10
4696.871954,-7
4696.873072,10
4696.873979,1
4696.874959,-43
4696.875919,-64
4696.877141,-46
4696.877927,-24
4696.8789,-18
4696.879901,-10
4696.880867,4
4696.88189,-8
4696.882897,-23
4696.883915,-17
4696.885162,-15
4696.885868,-37
4696.886941,-89
4696.887865,-108
4696.888867,-100
4696.889899,-93
4696.890845,-71
4696.891875,-66
4696.892839,-106
4696.893787,-131
4696.894865,-113
4696.895831,-81
4696.896895,-63
4696.897789,-67
4696.898885,-100
4696.899848,-132
4696.900807,-159
4696.901743,-125
4696.902811,-20
4696.903725,55
4696.904765,87
4696.905789,72
4696.907008,15
4696.907701,-29
4696.90874,-6
4696.909752,48
4696.910717,82
4696.91178,44
4696.912676,10
4696.913717,24
4696.914679,33
4696.915684,-20
4696.916759,-78
4696.917659,-78
4696.918675,-77
4696.919662,-89
4696.920644,-70
4696.921642,-15
4696.922637,24
4696.923771,14
4696.924696,19
4696.925609,31
4696.926599,10
4696.927637,-35
4696.92863,-53
4696.92958,-37
4696.931078,-31
4696.931576,-54
4696.932551,-76
4696.933573,-63
4696.934522,-55
4696.935556,-81
4696.936538,-123
4696.937502,-144
4696.938554,-111
4696.939542,-71
4696.940553,-19
4696.941605,37
4696.942464,44
4696.943507,28
4696.94453,-1
4696.945486,-23
4696.946441,-7
4696.947458,50
4696.94844,61
4696.949444,48
4696.950506,52
4696.951409,66
4696.952405,47
4696.953554,2
4696.954435,-78
4696.955426,-135
4696.956538,-138
4696.957627,-118
4696.958367,-86
4696.959383,-34
4696.960522,-21
4696.961458,-35
4696.962389,-77
4696.963365,-97
4696.96438,-72
4696.965572,-39
4696.966346,-26
4696.967335,-44
4696.968323,-35
4696.969281,2
4696.970294,13
4696.971295,-23
4696.972281,-83
4696.973341,-82
4696.974252,-66
4696.975301,-77
4696.976246,-91
4696.977248,-76
4696.978276,-47
4696.979264,-18
4696.98027,0
4696.981293,-13
4696.982317,-23
4696.983341,3
4696.984365,35
4696.985389,22
4696.986413,-11
4696.987436,-30
4696.98846,-66
4696.989484,-116
4696.990508,-117
4696.991532,-80
4696.992555,-55
4696.993579,-41
4696.994603,-30
4696.995581,-30
4696.996145,-45
4696.997111,-65
4696.998139,-51
4696.999158,-26
4697.000116,33
4697.001151,86
4697.002121,135
4697.00309,181
4697.004098,197
4697.005091,169
4697.006252,97
4697.007098,3
4697.008092,-67
4697.009028,-121
4697.010062,-129
4697.011119,-121
4697.012033,-98
4697.013007,-14
4697.014016,50
4697.015142,0
4697.016002,-45
4697.017024,-20
4697.018148,41
4697.018996,82
4697.020033,89
4697.020975,67
4697.021967,12
4697.023019,-60
4697.023985,-120
4697.025113,-123
4697.025993,-100
4697.026934,-86
4697.027942,-72
4697.028934,-77
4697.030142,-50
4697.030898,26
4697.031964,65
4697.032901,37
4697.033882,-5
4697.034881,-48
4697.035903,-78
4697.036864,-85
4697.0379,-61
4697.038871,-31
4697.039888,-11
4697.041226,2
4697.041892,3
4697.042845,-69
4697.043788,-148
4697.044824,-182
4697.045844,-184
4697.046809,-210
4697.047794,-220
4697.048792,-216
4697.049785,-202
4697.050808,-163
4697.051746,-107
4697.052911,-67
4697.053749,-21
4697.054758,-2
4697.055747,-14
4697.056733,-29
4697.057756,-46
4697.058748,-80
4697.059758,-87
4697.060799,-94
4697.061723,-120
4697.062704,-133
4697.063709,-94
4697.0647,-92
4697.065692,-131
4697.06673,-149
4697.067674,-106
4697.068665,-80
4697.069675,-104
4697.07066,-146
4697.071641,-123
4697.072702,-52
4697.073807,-12
4697.074603,-16
4697.075623,-41
4697.076629,-65
4697.077573,-52
4697.078584,-42
4697.079613,-41
4697.080573,-74
4697.081577,-124
4697.082544,-151
4697.083597,-148
4697.084555,-101
4697.085592,-46
4697.086517,-3
4697.088518,-23
4697.08857,-65
4697.089562,-94
4697.090567,-131
4697.091528,-138
4697.092502,-119
4697.093511,-112
4697.094511,-98
4697.095492,-73
4697.096469,-65
4697.097474,-97
4697.098495,-141
4697.099711,-192
4697.100487,-216
4697.101443,-212
4697.102489,-180
4697.103462,-121
4697.104465,-65
4697.105485,-16
4697.106528,-9
4697.10747,-48
4697.108403,-127
4697.109402,-146
4697.110586,-122
4697.111384,-108
4697.112359,-102
4697.113459,-87
4697.11433,-117
4697.115322,-183
4697.116342,-230
4697.117357,-241
4697.118336,-244
4697.119445,-207
4697.120311,-156
4697.121323,-183
4697.122621,-220
4697.123281,-171
4697.124296,-100
4697.125292,-44
4697.126348,-31
4697.127239,-21
4697.128266,-11
4697.12926,-2
4697.130253,-34
4697.131234,-74
4697.132244,-36
4697.133245,27
4697.134221,59
4697.135383,102
4697.136286,161
4697.137215,207
4697.138167,250
4697.139221,271
4697.140409,287
4697.141204,306
4697.142151,320
4697.143225,341
4697.14415,388
4697.145137,432
4697.14615,464
4697.147128,502
4697.148121,547
4697.149232,620
4697.150101,697
4697.151118,750
4697.152227,779
4697.153105,836
4697.154111,909
4697.155092,949
4697.156137,936
4697.157172,882
4697.158973,806
4697.159104,701
4697.160012,575
4697.161034,476
4697.16203,401
4697.163032,334
4697.164033,256
4697.165013,196
4697.166036,113
4697.167003,25
4697.168016,-80
4697.169002,-235
4697.170028,-373
4697.170989,-489
4697.171971,-574
4697.173023,-616
4697.173967,-615
4697.174983,-631
4697.176015,-634
4697.176944,-622
4697.177946,-599
4697.178883,-578
4697.179957,-580
4697.180877,-572
4697.182568,-562
4697.182891,-571
4697.184088,-562
4697.185412,-519
4697.185869,-489
4697.186899,-471
4697.187869,-444
4697.188895,-406
4697.189864,-395
4697.190799,-381
4697.191877,-318
4697.193016,-268
4697.193759,-248
4697.194802,-230
4697.195828,-218
4697.196803,-240
4697.197815,-273
4697.19879,-284
4697.199985,-283
4697.200981,-265
4697.201884,-228
4697.2028,-200
4697.203777,-203
4697.204794,-220
4697.205736,-227
4697.206749,-248
4697.207959,-234
4697.208714,-187
4697.209747,-156
4697.210713,-143
4697.211701,-145
4697.212706,-113
4697.213721,-50
4697.214699,-6
4697.215695,-32
4697.216662,-106
4697.217764,-173
4697.218665,-251
4697.219644,-317
4697.220616,-319
4697.221586,-272
4697.222644,-229
4697.22376,-191
4697.224599,-184
4697.225652,-204
4697.226715,-249
4697.227713,-281
4697.228595,-285
4697.22955,-247
4697.230658,-173
4697.231684,-127
4697.232564,-143
4697.23368,-169
4697.234571,-215
4697.235507,-233
4697.236495,-193
4697.237499,-147
4697.238521,-89
4697.23956,-32
4697.240502,7
4697.241474,3
4697.242687,-53
4697.243496,-124
4697.244463,-134
4697.245498,-143
4697.246511,-149
4697.247487,-109
4697.248472,-76
4697.249436,-105
4697.250444,-162
4697.251424,-156
4697.252441,-127
4697.253388,-91
4697.254412,-82
4697.255375,-97
4697.256397,-118
4697.257438,-139
4697.258357,-122
4697.259393,-94
4697.26039,-67
4697.261404,-82
4697.262331,-142
4697.263347,-172
4697.264341,-162
4697.265341,-173
4697.266447,-202
4697.267317,-214
4697.268429,-177
4697.269311,-140
4697.270285,-102
4697.27131,-46
4697.272259,-2
4697.273262,-32
4697.274257,-73
4697.275274,-81
4697.276475,-102
4697.277276,-124
4697.278274,-123
4697.279247,-112
4697.280237,-92
4697.281203,-74
4697.282232,-51
4697.283234,-36
4697.284199,-46
4697.285171,-84
4697.286298,-98
4697.287221,-59
4697.288269,-21
4697.289185,-30
4697.290174,-62
4697.291209,-126
4697.29221,-182
4697.293414,-179
4697.294713,-136
4697.296156,-97
4697.296203,-105
4697.297099,-107
4697.298127,-100
4697.299095,-115
4697.30015,-174
4697.301092,-215
4697.30208,-234
4697.303102,-212
4697.304142,-151
4697.305041,-69
4697.306042,1
4697.307107,47
4697.308039,40
4697.30905,-21
4697.310037,-65
4697.311047,-89
4697.312022,-103
4697.313016,-97
4697.314061,-73
4697.314994,-47
4697.316003,-32
4697.316998,-14
4697.317981,-11
4697.318989,-15
4697.319955,18
4697.320976,60
4697.321942,71
4697.322923,60
4697.323965,48
4697.324926,-23
4697.329739,-64
4697.329893,-68
4697.330048,-27
4697.330203,18
4697.330358,14
4697.331072,-20
4697.331859,-59
4697.332969,-98
4697.333899,-111
4697.334892,-116
4697.335858,-127
4697.336866,-114
4697.33784,-71
4697.338835,-17
4697.339863,45
4697.340797,122
4697.341928,172
4697.342793,182
4697.343813,148
4697.344886,88
4697.345894,19
4697.346814,-19
4697.34794,-31
4697.348876,-2
4697.349762,51
4697.350854,78
4697.351737,65
4697.352763,18
4697.353817,-25
4697.354712,-44
4697.355732,-48
4697.356729,-59
4697.357849,-44
4697.358695,-2
4697.359723,35
4697.360695,61
4697.361672,61
4697.362661,68
4697.363692,76
4697.364632,59
4697.365676,42
4697.366697,1
4697.367622,-50
4697.368946,-78
4697.369626,-80
4697.370632,-44
4697.37166,-30
4697.372593,-27
4697.373731,2
4697.374647,47
4697.375621,48
4697.376604,11
4697.377608,-10
4697.378553,-33
4697.37958,-34
4697.380579,-9
4697.381579,25
4697.38252,11
4697.383606,-4
4697.384541,17
4697.385512,42
4697.386528,39
4697.387832,21
4697.388508,14
4697.389493,15
4697.390464,36
4697.391515,86
4697.392511,75
4697.393578,-5
4697.394472,-43
4697.395524,-51
4697.396469,-49
4697.397448,-77
4697.400138,-127
4697.400628,-143
4697.40073,-133
4697.401421,-142
4697.402493,-135
4697.403537,-123
4697.404568,-114
4697.405396,-80
4697.406394,-83
4697.407415,-87
4697.408393,-89
4697.409368,-105
4697.410394,-136
4697.411407,-166
4697.412344,-182
4697.413367,-163
4697.414349,-123
4697.415362,-110
4697.416317,-129
4697.417332,-135
4697.418342,-116
4697.419342,-98
4697.420286,-98
4697.42129,-143
4697.422289,-195
4697.423657,-232
4697.424315,-246
4697.425283,-240
4697.426312,-238
4697.427281,-235
4697.428279,-237
4697.429244,-265
4697.430229,-274
4697.431247,-259
4697.432219,-259
4697.433285,-285
4697.434273,-279
4697.435193,-237
4697.436359,-228
4697.437284,-271
4697.438192,-305
4697.439164,-344
4697.440164,-373
4697.441148,-373
4697.44218,-334
4697.443175,-295
4697.444176,-300
4697.445169,-292
4697.446347,-263
4697.447118,-233
4697.448116,-229
4697.449131,-257
4697.450108,-286
4697.451075,-282
4697.4523,-234
4697.453559,-197
4697.454348,-235
4697.45507,-258
4697.456064,-242
4697.457231,-251
4697.458077,-260
4697.459115,-272
4697.460073,-339
4697.461114,-409
4697.462013,-410
4697.463357,-369
4697.464164,-316
4697.465034,-246
4697.465978,-185
4697.466976,-153
4697.467959,-134
4697.468982,-150
4697.469958,-179
4697.470946,-200
4697.471975,-203
4697.472947,-203
4697.473951,-221
4697.474946,-237
4697.475929,-243
4697.476875,-259
4697.477927,-304
4697.478918,-344
4697.479915,-344
4697.480932,-353
4697.481871,-362
4697.48287,-328
4697.483851,-290
4697.484819,-282
4697.485898,-280
4697.487054,-247
4697.48781,-224
4697.488891,-208
4697.489821,-169
4697.490808,-164
4697.492276,-198
4697.492811,-256
4697.4938,-317
4697.494847,-338
4697.49574,-358
4697.496748,-374
4697.497795,-342
4697.498874,-278
4697.499791,-197
4697.500751,-119
4697.501773,-85
4697.502883,-117
4697.50372,-148
4697.504729,-141
4697.505703,-156
4697.506713,-174
4697.507703,-185
4697.508655,-222
4697.509696,-267
4697.510713,-294
4697.511704,-271
4697.51275,-223
4697.513707,-213
4697.51503,-219
4697.51562,-216
4697.51666,-248
4697.517618,-257
4697.518668,-232
4697.519664,-220
4697.520648,-234
