timestamp,LP FIR Sample,New ECG Sample,bpm,squared sample
175.871501,8,60,54,49
175.872473,12,34,54,144
175.87345,14,41,54,324
175.874468,13,19,54,441
175.875475,10,-40,54,484
175.876455,4,-75,54,289
175.877448,0,-45,54,121
175.878442,0,15,54,36
175.879472,1,64,54,4
175.880415,3,60,54,1
175.881417,5,44,54,9
175.882407,8,32,54,16
175.883406,12,49,54,4
175.884391,16,50,54,9
175.88539,18,10,54,64
175.886397,19,-17,54,225
175.887352,20,-18,54,400
175.888366,18,-31,54,324
175.889374,12,-85,54,121
175.89035,2,-136,54,1
175.891362,-8,-156,54,169
175.892329,-16,-120,54,576
175.893328,-19,-14,54,961
175.894336,-17,61,54,1089
175.895336,-11,74,54,841
175.896309,-5,42,54,576
175.897288,-3,5,54,529
175.898295,-4,-5,54,484
175.899305,-8,-16,54,400
175.900293,-12,-29,54,196
175.901281,-15,-15,54,49
175.902325,-17,-3,54,1
175.903301,-20,-15,54,1
175.904257,-24,-24,54,49
175.905318,-25,-12,54,196
175.906246,-23,13,54,324
175.907273,-21,36,54,324
175.908218,-17,41,54,169
175.909233,-11,40,54,9
175.910208,-3,10,54,81
175.911225,3,-4,54,324
175.912213,9,-5,54,676
175.913208,9,-18,54,841
175.914193,5,-14,54,841
175.915172,0,-25,54,625
175.916174,-4,-68,54,361
175.91717,-9,-82,54,144
175.918175,-11,-40,54,36
175.919158,-10,-6,54,1
175.920138,-7,24,54,16
175.921165,-4,54,54,49
175.922158,-1,65,54,100
175.923133,3,66,54,36
175.924107,6,47,54,1
175.925127,7,1,54,49
175.926092,5,-16,54,81
175.927079,4,5,54,169
175.928094,3,27,54,196
175.929067,3,45,54,169
175.930079,6,57,54,169
175.931082,9,53,54,169
175.932073,11,52,54,144
175.933055,15,53,54,144
175.934091,17,32,54,121
175.9355,18,-10,54,121
175.937311,18,-58,54,169
175.937353,18,-99,54,196
175.93805,14,-114,54,121
175.939017,9,-110,54,36
175.940024,3,-100,54,9
175.941062,-2,-63,54,121
175.941993,-7,-23,54,324
175.942991,-10,5,54,625
175.943995,-11,21,54,784
175.945,-9,36,54,729
175.945979,-6,49,54,576
175.946975,-4,51,54,484
175.947978,-4,18,54,324
175.948939,-9,-45,54,324
175.950097,-16,-81,54,361
175.953572,-22,-76,54,400
175.953617,-28,-61,54,441
175.953652,-32,-30,54,484
175.953951,-34,-10,54,529
175.954912,-33,5,54,576
175.955935,-29,24,54,529
175.956895,-25,-25,54,441
175.957952,-24,-79,54,400
175.958882,-21,-49,54,144
175.959864,-14,35,54,4
175.960856,-5,112,54,289
175.961854,4,172,54,1024
175.962847,12,166,54,1936
175.963897,16,105,54,2500
175.96482,15,21,54,2304
175.965834,9,-64,54,1444
175.966829,3,-87,54,784
175.967806,-1,-74,54,529
175.968814,-1,-37,54,400
175.969828,4,33,54,324
175.97079,10,49,54,225
175.971786,13,-13,54,81
175.972797,11,-72,54,1
175.973768,8,-59,54,64
175.974753,8,-3,54,49
175.975754,9,40,54,0
175.976737,13,65,54,100
175.97779,20,69,54,441
175.978735,26,67,54,729
175.979736,27,53,54,529
175.980724,24,54,54,196
175.981726,20,89,54,49
175.982729,17,94,54,36
175.983691,15,78,54,49
175.98469,17,67,54,81
175.985689,25,91,54,256
175.986682,35,104,54,484
175.987661,42,80,54,484
175.988702,47,54,54,441
175.989665,48,58,54,441
175.990682,49,61,54,625
175.99164,52,47,54,1024
175.992636,58,55,54,1681
175.993629,67,114,54,2704
175.994619,77,192,54,3600
175.995684,85,211,54,3600
175.996595,90,171,54,3025
175.997636,93,124,54,2601
175.998601,94,85,54,2209
175.99959,93,35,54,2025
176.000629,89,-25,54,1600
176.001591,83,-29,54,961
176.002571,80,27,54,484
176.003555,80,82,54,169
176.00458,83,116,54,36
176.005539,86,153,54,1
176.006533,87,132,54,9
176.007535,87,77,54,36
176.008525,88,74,54,36
176.009523,90,93,54,9
176.010509,92,101,54,9
176.011501,93,77,54,100
176.012494,93,40,54,169
176.013486,88,16,54,64
176.014543,76,-39,54,49
176.015485,61,-87,54,625
176.016483,48,-89,54,1521
176.01746,41,-25,54,2116
176.018473,38,32,54,2500
176.019476,40,78,54,2500
176.020454,47,109,54,2025
176.021436,54,112,54,1521
176.022442,58,98,54,1225
176.023426,57,77,54,961
176.024457,55,71,54,441
176.025428,51,70,54,100
176.02642,48,78,54,0
176.027368,47,49,54,36
176.028375,43,-4,54,25
176.029392,38,-8,54,4
176.03038,33,-2,54,196
176.031366,28,-8,54,676
176.032357,26,-6,54,1024
176.033358,25,3,54,1024
176.034359,28,10,54,729
176.035369,34,35,54,289
176.036338,40,38,54,64
176.037294,42,8,54,25
176.038325,40,-5,54,9
176.039328,35,-26,54,9
176.040342,26,-65,54,49
176.041328,17,-65,54,121
176.042321,12,-13,54,196
176.043289,9,20,54,256
176.04431,6,4,54,484
176.045332,3,25,54,961
176.04641,2,47,54,1444
176.047422,1,35,54,1681
176.048357,1,-6,54,1521
176.049369,0,-40,54,1225
176.050321,-2,-58,54,784
176.051271,-5,-60,54,484
176.052258,-9,-78,54,441
176.053244,-15,-116,54,576
176.054321,-22,-149,54,784
176.055204,-33,-180,54,1296
176.056208,-45,-189,54,2209
176.057219,-52,-147,54,2809
176.058228,-57,-90,54,3364
176.059353,-58,-53,54,3364
176.060255,-57,-45,54,3025
176.061213,-55,-36,54,2500
176.062221,-56,-15,54,2209
176.063196,-58,-37,54,1849
176.064264,-62,-68,54,1600
176.065245,-67,-84,54,1156
176.066302,-73,-64,54,784
176.067293,-77,-46,54,625
176.068068,-80,-61,54,529
176.069112,-82,-74,54,576
176.070106,-84,-101,54,729
176.071107,-86,-99,54,961
176.072072,-83,-30,54,729
176.073064,-77,18,54,361
176.074198,-70,-18,54,64
176.075094,-65,-83,54,4
176.076133,-64,-159,54,81
176.07718,-68,-233,54,81
176.078084,-75,-224,54,25
176.079204,-80,-165,54,4
176.080025,-86,-168,54,4
176.081095,-94,-194,54,64
176.0822,-103,-187,54,400
176.083054,-110,-170,54,1089
176.08405,-114,-164,54,1936
176.084996,-118,-166,54,2809
176.08601,-120,-101,54,3136
176.086955,-121,-58,54,2809
176.088027,-120,-41,54,2025
176.088962,-118,-40,54,1444
176.08996,-115,-44,54,841
176.091034,-112,-26,54,324
176.091981,-111,-22,54,64
176.093022,-114,-43,54,16
176.093911,-117,-68,54,9
176.095024,-117,-96,54,1
176.096054,-115,-111,54,25
176.097034,-109,-111,54,144
176.097924,-103,-105,54,289
176.098888,-103,-157,54,225
176.099888,-104,-203,54,121
176.100905,-103,-176,54,81
176.101873,-100,-124,54,121
176.102872,-95,-73,54,361
176.103895,-90,-45,54,729
176.1049,-83,-40,54,1156
176.105847,-79,-24,54,1296
176.106898,-77,-11,54,1024
176.107861,-75,0,54,784
176.108867,-72,12,54,961
176.109857,-71,-13,54,1089
176.110825,-72,-59,54,961
176.111821,-74,-55,54,676
176.112801,-72,2,54,529
176.113788,-66,53,54,576
176.114781,-56,109,54,729
176.115781,-41,178,54,1444
176.116765,-23,247,54,2916
176.117758,-1,335,54,5476
176.118755,25,387,54,9409
176.119759,55,403,54,15876
176.120751,85,425,54,24649
176.121736,113,422,54,34969
176.122788,136,399,54,43264
176.12372,159,414,54,50625
176.124708,183,440,54,57121
176.125758,205,418,54,60516
176.126703,223,336,54,60516
176.127682,236,262,54,56169
176.128711,243,166,54,47524
176.12969,246,42,54,36481
176.130669,249,-5,54,26896
176.131668,252,6,54,19321
176.132658,253,23,54,13689
176.133655,251,12,54,8464
176.13464,245,-7,54,3844
176.135626,238,42,54,1089
176.136673,230,82,54,49
176.137671,215,38,54,441
176.138628,192,-88,54,2601
176.139617,162,-184,54,7056
176.140677,133,-157,54,13456
176.141604,106,-117,54,21316
176.142622,81,-112,54,29584
176.143595,54,-112,54,38809
176.144569,27,-99,54,47524
176.145546,3,-78,54,55225
176.146581,-18,-94,54,61504
176.147578,-40,-169,54,65025
176.148579,-57,-188,54,62001
176.149576,-68,-173,54,52900
176.150546,-77,-181,54,44100
176.151539,-86,-185,54,36864
176.152529,-97,-183,54,31684
176.153507,-106,-180,54,25600
176.154511,-114,-155,54,19881
176.155521,-120,-94,54,15129
176.156522,-127,-57,54,11881
176.157502,-132,-60,54,8464
176.158697,-132,-75,54,5625
176.159495,-125,-46,54,3249
176.16051,-118,-31,54,1681
176.161464,-116,-64,54,900
176.162468,-116,-108,54,361
176.163477,-116,-128,54,100
176.164456,-120,-164,54,36
176.165417,-124,-167,54,16
176.166453,-126,-139,54,1
176.167449,-125,-141,54,49
176.168424,-125,-183,54,49
176.169471,-126,-204,54,1
176.170413,-125,-149,54,49
176.171699,-118,-58,55,4
176.172605,-111,-30,55,25
176.173431,-103,-32,55,169
176.174375,-96,-17,55,576
176.175393,-91,4,55,1089
176.176363,-89,1,55,1369
176.177361,-85,2,55,1600
176.178347,-81,13,55,1936
176.179323,-80,-25,55,2116
176.180352,-82,-68,55,1849
176.181345,-83,-84,55,1225
176.182332,-83,-105,55,784
176.183333,-82,-118,55,441
176.184319,-80,-119,55,256
176.185323,-76,-87,55,225
176.186308,-73,-76,55,256
176.187294,-70,-90,55,225
176.188298,-64,-65,55,289
176.189289,-56,-44,55,576
176.190253,-51,-45,55,961
176.191319,-48,-2,55,1225
176.19225,-44,53,55,1521
176.193253,-40,47,55,1764
176.194232,-39,16,55,1681
176.195245,-39,-7,55,1369
176.196234,-40,-11,55,1089
176.197223,-41,-28,55,841
176.198205,-47,-103,55,289
176.199219,-55,-178,55,1
176.200205,-60,-165,55,81
176.201194,-62,-133,55,196
176.202197,-63,-120,55,361
176.203185,-61,-84,55,441
176.204184,-55,7,55,256
176.205214,-47,70,55,64
176.206157,-41,36,55,1
176.207159,-38,-18,55,9
176.208142,-36,-26,55,121
176.209163,-35,-19,55,400
176.210121,-34,-43,55,676
176.211114,-39,-97,55,529
176.212128,-48,-117,55,225
176.213121,-56,-126,55,25
176.214218,-61,-78,55,36
176.215143,-60,10,55,169
176.216088,-57,57,55,256
176.217083,-54,37,55,256
176.218106,-48,8,55,144
176.219096,-40,-15,55,25
176.220073,-34,-42,55,0
176.2211,-28,-28,55,121
176.222065,-23,-7,55,625
176.223056,-20,-25,55,1296
176.224045,-24,-80,55,1369
176.225033,-34,-129,55,676
176.226056,-44,-159,55,169
176.227011,-51,-167,55,9
176.228008,-61,-218,55,169
176.229018,-73,-270,55,1089
176.230043,-83,-238,55,2401
176.231017,-85,-134,55,3249
176.231992,-81,-37,55,3364
176.232981,-73,26,55,2809
176.233981,-66,65,55,1764
176.234965,-64,54,55,900
176.235953,-66,29,55,484
176.237019,-68,-6,55,289
176.237931,-72,-76,55,121
176.23895,-76,-103,55,9
176.239925,-79,-101,55,16
176.240961,-82,-92,55,9
176.241965,-86,-87,55,25
176.242915,-90,-90,55,289
176.243908,-91,-110,55,625
176.244893,-91,-124,55,729
176.24589,-91,-163,55,625
176.246881,-92,-185,55,576
176.247875,-88,-142,55,256
176.248885,-78,-63,55,4
176.24987,-64,35,55,225
176.250882,-52,103,55,900
176.251861,-47,65,55,1521
176.252845,-51,-45,55,1521
176.253847,-58,-83,55,1089
176.254849,-63,-39,55,784
176.255823,-66,-33,55,625
176.25681,-67,-34,55,625
176.257821,-66,-46,55,484
176.258822,-66,-115,55,144
176.259771,-70,-167,55,36
176.260798,-74,-171,55,484
176.261782,-77,-150,55,900
176.262775,-79,-123,55,784
176.263769,-79,-115,55,441
176.264767,-79,-133,55,256
176.265758,-75,-87,55,81
176.26675,-66,0,55,1
176.267755,-58,30,55,64
176.268746,-53,26,55,169
176.269773,-52,49,55,324
176.27073,-53,87,55,441
176.27173,-54,59,55,529
176.272732,-51,11,55,784
176.27371,-49,-39,55,900
176.274709,-51,-85,55,784
176.275691,-54,-98,55,441
176.276679,-56,-75,55,100
176.277669,-56,-39,55,4
176.278671,-50,7,55,9
176.279674,-40,20,55,144
176.280654,-32,-4,55,441
176.28166,-22,43,55,1024
176.282647,-11,104,55,1600
176.283648,-2,73,55,2209
176.284631,4,-3,55,3025
176.285623,7,-30,55,3721
176.286625,5,-42,55,3721
176.287623,2,-28,55,3364
176.288598,2,21,55,2704
176.289616,2,62,55,1764
176.290586,0,46,55,1024
176.291602,-2,0,55,400
176.292571,-5,-55,55,36
176.293576,-8,-94,55,36
176.294567,-7,-75,55,121
176.295564,-5,-58,55,144
176.296556,-6,-89,55,121
176.297566,-9,-101,55,121
176.298545,-14,-86,55,256
176.29955,-19,-75,55,441
176.300528,-22,-70,55,484
176.301517,-28,-77,55,676
176.30258,-38,-100,55,1089
176.303506,-47,-98,55,1521
176.3045,-49,-54,55,1764
176.305514,-47,15,55,1764
176.306521,-43,29,55,1369
176.307453,-43,-12,55,1156
176.308511,-46,-45,55,1024
176.309471,-51,-35,55,1024
176.310451,-53,-4,55,961
176.311463,-52,15,55,576
176.312451,-50,-6,55,144
176.313443,-47,-33,55,0
176.314426,-46,-49,55,9
176.315438,-45,-47,55,4
176.316421,-42,-35,55,1
176.317415,-39,-27,55,16
176.318424,-36,-35,55,100
176.319433,-35,-45,55,256
176.320421,-34,-59,55,361
176.321383,-32,-35,55,400
176.322425,-28,-14,55,484
176.32338,-24,-29,55,529
176.324359,-24,-56,55,484
176.325367,-28,-49,55,289
176.326346,-30,-14,55,144
176.327354,-28,15,55,121
176.328359,-25,15,55,121
176.329341,-22,30,55,169
176.330329,-18,71,55,256
176.331319,-15,92,55,289
176.332303,-11,64,55,289
176.333307,-11,-30,55,169
176.334309,-12,-80,55,144
176.335297,-14,-81,55,196
176.3363,-16,-73,55,196
176.337302,-17,-54,55,121
176.338272,-17,-20,55,64
176.339267,-14,14,55,64
176.340261,-9,43,55,81
176.341251,-3,70,55,144
176.342273,2,106,55,169
176.343233,10,133,55,441
176.344232,20,139,55,1024
176.345238,29,132,55,1849
176.346199,35,109,55,2601
176.347224,37,63,55,2916
176.348215,38,26,55,3025
176.349209,38,29,55,2704
176.350188,38,79,55,2209
176.351192,38,85,55,1681
176.352186,37,56,55,1225
176.353196,42,61,55,1024
176.354162,49,61,55,841
176.355157,56,60,55,729
176.356134,64,85,55,841
176.357153,72,110,55,1225
176.358134,80,132,55,1764
176.359131,85,112,55,2209
176.360109,86,80,55,2304
176.361092,87,82,55,2401
176.362111,85,73,55,2304
176.363086,82,61,55,1600
176.364096,77,39,55,784
176.365109,73,61,55,289
176.36611,74,117,55,100
176.367067,76,113,55,16
176.368067,80,111,55,0
176.369048,87,160,55,4
176.370053,93,201,55,49
176.371057,100,231,55,169
176.372047,109,239,55,576
176.373066,118,222,55,1296
176.374026,123,180,55,2116
176.374998,127,139,55,2916
176.376031,128,87,55,2916
176.377012,125,55,55,2401
176.377991,120,45,55,1600
176.37898,117,38,55,900
176.379982,114,35,55,441
176.380985,114,68,55,196
176.381961,117,135,55,64
176.382985,121,144,55,9
176.383985,126,142,55,9
176.384951,132,174,55,25
176.385956,137,214,55,81
176.386941,142,225,55,289
176.38796,147,212,55,729
176.388924,148,177,55,961
176.389927,146,154,55,1024
176.390905,142,153,55,784
176.391961,137,132,55,400
176.392904,132,131,55,121
176.393909,131,160,55,25
176.394882,132,162,55,0
176.395888,136,159,55,1
176.396875,142,172,55,0
176.397862,148,170,55,1
176.398849,153,133,55,25
176.399851,156,95,55,100
176.400854,156,83,55,196
176.401842,154,90,55,289
176.402828,152,92,55,400
176.403809,149,98,55,324
176.404814,146,104,55,196
176.405864,139,87,55,9
176.40685,131,60,55,121
176.40781,125,86,55,529
176.408789,124,153,55,841
176.409797,126,198,55,900
176.410782,129,208,55,729
176.411754,132,207,55,484
176.412752,135,184,55,289
176.413757,135,152,55,196
176.414752,131,94,55,225
176.415742,124,21,55,225
176.416731,118,39,55,169
176.41774,116,129,55,81
176.418715,120,222,55,16
176.41973,128,253,55,4
176.42071,135,229,55,36
176.421717,140,193,55,64
176.422723,143,147,55,64
176.423736,144,107,55,81
176.424677,141,56,55,100
176.425681,138,23,55,196
176.42667,136,23,55,324
176.42767,133,30,55,289
176.428644,128,41,55,64
176.429631,120,44,55,64
176.430663,111,22,55,576
176.431634,103,60,55,1369
176.432647,100,117,55,1849
176.433649,100,140,55,1936
176.434613,100,113,55,1681
176.435639,101,35,55,1369
176.436608,102,61,55,1156
176.437598,104,162,55,841
176.438626,101,172,55,729
176.43961,95,118,55,625
176.440583,88,100,55,529
176.441581,82,59,55,441
176.442567,76,42,55,576
176.443568,74,58,55,676
176.444567,73,31,55,729
176.445557,71,-18,55,900
176.446532,68,-33,55,1156
176.447538,66,-11,55,1444
176.448525,65,20,55,1296
176.44953,63,20,55,1024
176.450522,63,5,55,625
176.4515,60,16,55,484
176.452498,54,-1,55,484
176.453492,47,-16,55,729
176.454494,41,-2,55,1024
176.455464,37,-47,55,1156
176.456449,27,-137,55,1681
176.457452,11,-155,55,3025
176.458432,-1,-87,55,4356
176.459419,-8,-22,55,5041
176.460445,-13,-3,55,5776
176.461478,-17,-15,55,5929
176.462444,-22,-59,55,5776
176.463441,-30,-106,55,5929
176.464412,-37,-100,55,6084
176.465397,-39,-64,55,5776
176.466415,-40,-57,55,4489
176.467403,-44,-80,55,3025
176.468391,-49,-94,55,2304
176.469375,-55,-105,55,2209
176.470376,-62,-121,55,2401
176.471363,-67,-90,55,2500
176.472349,-70,-66,55,2304
176.473332,-74,-97,55,1936
176.474349,-81,-137,55,1936
176.475353,-85,-120,55,2116
176.476317,-82,-73,55,1764
176.47732,-76,-39,55,1024
176.478318,-74,-48,55,625
176.479298,-78,-109,55,529
176.480299,-86,-160,55,576
176.481286,-92,-133,55,625
176.48228,-93,-77,55,529
176.483305,-91,-61,55,289
176.484284,-90,-82,55,81
176.485283,-91,-82,55,36
176.486255,-91,-58,55,81
176.487258,-91,-79,55,225
176.488238,-92,-114,55,324
176.489255,-93,-131,55,225
176.490225,-92,-111,55,36
176.491231,-92,-89,55,0
176.492222,-95,-120,55,4
176.493219,-96,-119,55,25
176.494206,-92,-63,55,4
176.495221,-88,-31,55,9
176.496226,-88,-72,55,9
176.49725,-94,-156,55,9
176.498212,-102,-206,55,100
176.49922,-106,-203,55,169
176.500163,-106,-157,55,196
176.501137,-106,-127,55,196
176.502143,-108,-118,55,169
176.503155,-110,-100,55,196
176.504137,-110,-85,55,324
176.505122,-110,-76,55,484
176.506122,-113,-119,55,625
176.507104,-118,-184,55,576
176.508126,-122,-184,55,400
176.5091,-121,-123,55,225
176.510135,-119,-72,55,169
176.511092,-119,-92,55,169
176.512065,-119,-121,55,121
176.513058,-122,-161,55,144
176.514048,-128,-196,55,324
176.515092,-136,-195,55,676
176.516032,-142,-182,55,841
176.517019,-142,-160,55,576
176.518028,-139,-144,55,289
176.519039,-136,-153,55,225
176.520048,-137,-161,55,324
176.521033,-139,-171,55,400
176.522046,-141,-170,55,484
176.523001,-145,-174,55,529
176.523997,-150,-182,55,484
176.524973,-155,-182,55,361
176.525995,-159,-187,55,289
176.526967,-157,-154,55,225
176.527957,-155,-139,55,256
176.528935,-156,-151,55,400
176.52993,-160,-153,55,529
176.530965,-163,-150,55,576
176.531921,-164,-134,55,529
176.532935,-161,-107,55,256
176.533909,-156,-98,55,36
176.534958,-151,-95,55,16
176.535967,-147,-95,55,144
176.53692,-145,-111,55,144
176.5379,-143,-107,55,144
176.538889,-138,-65,55,324
176.539871,-133,-52,55,729
176.54086,-129,-99,55,1156
176.541853,-128,-150,55,1296
176.542838,-129,-179,55,1024
176.543832,-127,-153,55,841
176.544851,-123,-93,55,784
176.545828,-117,-83,55,900
176.546863,-116,-125,55,841
176.54786,-117,-164,55,676
176.548802,-119,-184,55,361
176.549802,-122,-208,55,121
176.550815,-125,-216,55,16
176.551802,-127,-180,55,1
176.552789,-130,-154,55,1
176.553776,-132,-138,55,25
176.554776,-132,-106,55,81
176.555764,-131,-82,55,196
176.55677,-131,-95,55,225
176.557758,-132,-134,55,225
176.558749,-137,-161,55,324
176.559763,-143,-178,55,441
176.560737,-146,-158,55,441
176.561716,-145,-123,55,324
176.562735,-141,-104,55,121
176.564225,-138,-92,55,36
176.567153,-138,-92,55,36
176.567171,-138,-90,55,49
176.567189,-136,-86,55,25
176.567687,-133,-92,55,1
176.568687,-129,-107,55,64
176.569684,-125,-139,55,324
176.570677,-123,-166,55,529
176.571679,-123,-185,55,484
176.572651,-124,-180,55,289
176.573629,-126,-163,55,144
176.574636,-127,-141,55,121
176.575678,-129,-108,55,81
176.576656,-128,-82,55,64
176.577604,-126,-87,55,49
176.578591,-125,-141,55,16
176.5796,-125,-189,55,0
176.580588,-130,-249,55,49
176.581591,-137,-259,55,196
176.582567,-143,-236,55,361
176.583572,-149,-213,55,529
176.584552,-154,-184,55,729
176.585594,-158,-169,55,841
176.586534,-163,-195,55,1225
176.587531,-170,-231,55,1936
176.588647,-178,-271,55,2809
176.589547,-185,-268,55,3600
176.590547,-187,-214,55,3249
176.591514,-185,-139,55,2304
176.592581,-181,-95,55,1444
176.593523,-176,-71,55,729
176.594503,-173,-78,55,361
176.595481,-173,-100,55,225
176.596484,-173,-93,55,100
176.59745,-174,-95,55,16
176.598467,-172,-107,55,36
176.599475,-169,-130,55,256
176.600551,-164,-157,55,529
176.601466,-159,-155,55,676
176.602459,-154,-139,55,729
176.605536,-150,-125,55,676
176.607689,-147,-134,55,676
176.607702,-146,-138,55,729
176.607714,-142,-124,55,961
176.607726,-138,-137,55,1296
176.608435,-130,-120,55,1764
176.609385,-121,-91,55,2304
176.610419,-113,-60,55,2601
176.611414,-110,-76,55,2401
176.612387,-111,-114,55,1849
176.613399,-115,-139,55,1225
176.614362,-119,-162,55,784
176.615367,-121,-150,55,625
176.616378,-122,-113,55,400
176.617325,-123,-99,55,225
176.618311,-124,-134,55,36
176.619359,-126,-176,55,25
176.620412,-128,-199,55,225
176.621351,-130,-181,55,400
176.622319,-129,-118,55,324
176.623312,-125,-49,55,100
176.624332,-121,-64,55,4
176.625369,-119,-100,55,4
176.626276,-119,-109,55,9
176.627311,-119,-146,55,16
176.628267,-124,-213,55,0
176.629275,-132,-255,55,36
176.630244,-143,-283,55,225
176.631236,-155,-316,55,625
176.632231,-166,-329,55,1369
176.63324,-173,-287,55,2304
176.634245,-176,-217,55,3025
176.635214,-176,-149,55,3249
176.63621,-175,-101,55,3136
176.637187,-173,-55,55,2916
176.638261,-168,-24,55,1936
176.639177,-157,26,55,625
176.640179,-144,62,55,1
176.641233,-133,47,55,484
176.64222,-128,-8,55,1444
176.643143,-127,-44,55,2116
176.644167,-126,-38,55,2500
176.645156,-124,-61,55,2704
176.646209,-126,-143,55,2401
176.647116,-130,-238,55,1849
176.648105,-133,-265,55,1225
176.649099,-133,-257,55,576
176.650095,-129,-210,55,225
176.6511,-121,-158,55,144
176.652114,-112,-144,55,256
176.653092,-106,-154,55,441
176.654076,-101,-132,55,625
176.655091,-100,-129,55,576
176.656066,-104,-178,55,484
176.657058,-112,-213,55,324
176.658102,-121,-197,55,144
176.659043,-130,-168,55,9
176.660072,-142,-171,55,169
176.66101,-152,-147,55,961
176.661998,-157,-116,55,2025
176.663005,-161,-130,55,3025
176.664014,-169,-180,55,4624
176.665042,-176,-216,55,5776
176.66598,-179,-204,55,5625
176.666979,-175,-147,55,3969
176.668023,-167,-111,55,2116
176.669007,-160,-111,55,900
176.669965,-157,-161,55,225
176.670982,-160,-203,55,64
176.671955,-161,-169,55,16
176.672973,-159,-116,55,4
176.673931,-156,-79,55,169
176.674928,-154,-77,55,484
176.67594,-150,-107,55,841
176.676906,-146,-130,55,841
176.677907,-144,-151,55,529
176.678891,-144,-169,55,256
176.679894,-143,-165,55,196
176.680887,-144,-154,55,256
176.681876,-146,-168,55,225
176.682875,-149,-177,55,100
176.683875,-148,-165,55,64
176.684858,-144,-142,55,100
176.685866,-141,-138,55,81
176.686859,-141,-143,55,25
176.687858,-144,-172,55,0
176.688854,-147,-170,55,9
176.689869,-146,-152,55,9
176.690862,-145,-182,55,1
176.691848,-148,-217,55,4
176.692821,-152,-192,55,9
176.693802,-155,-147,55,49
176.694805,-158,-140,55,196
176.695799,-160,-138,55,361
176.696768,-159,-120,55,324
176.697802,-157,-106,55,169
176.698757,-153,-95,55,36
176.699772,-150,-93,55,16
176.700766,-148,-116,55,9
176.701787,-147,-156,55,1
176.702744,-148,-196,55,16
176.703729,-150,-214,55,25
176.704735,-156,-245,55,4
176.705725,-163,-292,55,9
176.706722,-169,-261,55,100
176.707712,-169,-164,55,144
176.708707,-166,-114,55,169
176.709694,-164,-106,55,196
176.710666,-159,-88,55,121
176.711677,-155,-134,55,64
176.712674,-155,-201,55,49
176.713681,-158,-206,55,64
176.714652,-159,-163,55,9
176.715669,-159,-138,55,16
176.716654,-162,-168,55,49
176.717636,-166,-184,55,9
176.718624,-168,-150,55,4
176.719619,-169,-100,55,25
176.720631,-167,-73,55,64
176.721622,-161,-49,55,36
176.722621,-154,-45,55,1
176.723597,-149,-111,55,81
176.724594,-146,-200,55,169
176.725588,-144,-241,55,225
176.726577,-144,-255,55,324
176.72757,-148,-261,55,324
176.72855,-154,-224,55,196
176.729545,-156,-158,55,169
176.730532,-157,-107,55,100
176.731559,-154,-67,55,49
176.732538,-147,-55,55,49
176.733541,-141,-83,55,64
176.734525,-138,-120,55,64
176.735534,-139,-151,55,25
176.73653,-140,-193,55,16
176.737522,-142,-211,55,36
176.738511,-143,-185,55,121
176.739504,-148,-183,55,64
176.740495,-155,-221,55,4
176.741467,-164,-238,55,100
176.742466,-172,-201,55,625
176.743439,-174,-152,55,1089
176.744476,-169,-92,55,961
176.745502,-159,-50,55,400
176.746442,-152,-98,55,144
176.747448,-147,-163,55,25
176.748428,-145,-188,55,4
176.749427,-147,-200,55,1
176.750417,-154,-244,55,1
176.751403,-163,-257,55,1
176.752422,-171,-210,55,1
176.753404,-174,-137,55,0
176.754397,-172,-95,55,9
176.755377,-169,-84,55,100
176.7564,-163,-72,55,121
176.757383,-156,-72,55,81
176.758357,-151,-79,55,36
176.759359,-147,-103,55,0
176.760345,-141,-112,55,169
176.761331,-134,-97,55,841
176.762324,-129,-97,55,1764
176.763336,-126,-96,55,2304
176.764347,-126,-89,55,2116
176.765323,-130,-126,55,1521
176.766329,-134,-186,55,841
176.767332,-138,-237,55,324
176.768309,-140,-229,55,121
176.769305,-140,-203,55,49
176.77028,-137,-180,55,16
176.771286,-134,-188,55,0
176.772272,-135,-228,55,36
176.773262,-140,-252,55,196
176.774263,-147,-237,55,441
176.775298,-154,-220,55,576
176.776232,-161,-202,55,729
176.777238,-168,-209,55,900
176.778234,-175,-220,55,1225
176.779245,-181,-222,55,1681
176.780212,-186,-228,55,2401
176.781195,-193,-231,55,3481
176.782211,-199,-209,55,4096
176.783182,-202,-161,55,3844
176.784193,-204,-136,55,3249
176.785177,-204,-126,55,2500
176.786169,-202,-133,55,1681
176.787205,-197,-143,55,841
176.788154,-193,-147,55,324
176.789136,-189,-124,55,64
176.790145,-186,-122,55,0
176.791257,-184,-142,55,81
176.792148,-181,-182,55,324
176.793115,-179,-206,55,529
176.794111,-175,-164,55,841
176.795103,-170,-118,55,1156
176.796097,-167,-139,55,1225
176.797118,-167,-209,55,900
176.798092,-169,-267,55,576
176.799088,-171,-246,55,324
176.80007,-168,-168,55,324
176.801075,-161,-91,55,529
176.802092,-154,-76,55,729
176.803043,-151,-92,55,784
176.80405,-151,-150,55,576
176.805032,-154,-179,55,256
176.806037,-156,-176,55,121
176.807023,-157,-171,55,100
176.808036,-160,-188,55,81
176.809027,-166,-246,55,25
176.810009,-172,-242,55,16
176.811094,-171,-127,55,100
176.81205,-164,-44,55,100
176.812989,-157,-67,55,36
176.813987,-155,-118,55,16
176.815003,-156,-142,55,4
176.815977,-157,-164,55,1
176.81696,-155,-173,55,4
176.817976,-150,-160,55,100
176.81898,-145,-152,55,441
176.81995,-145,-152,55,729
176.820945,-148,-157,55,529
176.821948,-153,-171,55,121
176.82293,-157,-177,55,0
176.823913,-158,-176,55,9
176.824904,-156,-135,55,0
176.825868,-152,-94,55,25
176.826893,-147,-65,55,64
176.827925,-140,-61,55,100
176.828882,-131,-70,55,196
176.829891,-125,-114,55,400
176.83088,-127,-171,55,441
176.831889,-134,-184,55,361
176.832842,-139,-166,55,324
176.833843,-142,-171,55,256
176.834843,-144,-189,55,144
176.835845,-145,-183,55,49
176.836828,-145,-162,55,4
176.837796,-145,-170,55,25
176.838881,-147,-195,55,256
176.8398,-151,-227,55,676
176.840816,-154,-222,55,729
176.841797,-158,-250,55,576
176.842787,-163,-278,55,576
176.843768,-166,-239,55,576
176.844753,-168,-166,55,576
176.845764,-168,-105,55,529
176.846759,-168,-64,55,529
176.847747,-167,-38,55,484
176.848752,-164,-12,55,289
176.849725,-160,-18,55,81
176.850744,-154,-64,55,0
176.851716,-151,-116,55,49
176.852715,-151,-173,55,144
176.853712,-153,-218,55,169
176.854697,-156,-246,55,144
176.855667,-161,-282,55,49
176.856682,-166,-266,55,4
176.857683,-170,-239,55,9
176.858687,-172,-236,55,64
176.860402,-172,-232,55,144
176.865895,-172,-211,55,324
176.866236,-169,-189,55,324
176.866351,-163,-174,55,144
176.866467,-159,-143,55,36
176.866583,-155,-94,55,1
176.866699,-154,-81,55,49
176.866727,-155,-96,55,121
176.867648,-160,-124,55,100
176.868634,-167,-160,55,25
176.869605,-177,-213,55,25
176.870645,-186,-249,55,196
176.871617,-194,-266,55,625
176.872608,-200,-291,55,1369
176.873605,-201,-256,55,1764
176.874562,-201,-232,55,2116
176.875538,-199,-256,55,2025
176.876531,-199,-260,55,1936
176.877573,-198,-214,55,1444
176.878561,-192,-117,55,625
176.879534,-182,-34,55,25
176.880517,-174,-59,55,144
176.881562,-172,-144,55,484
176.882494,-173,-200,55,729
176.883495,-175,-172,55,676
176.884492,-175,-87,55,676
176.885508,-171,-11,55,784
176.886504,-167,-9,55,1024
176.887465,-165,-82,55,1089
176.888471,-164,-149,55,784
176.889504,-163,-183,55,361
176.890461,-159,-177,55,225
176.891445,-154,-169,55,324
176.892423,-148,-164,55,625
176.893432,-144,-172,55,961
176.894456,-143,-211,55,1024
176.895404,-140,-207,55,961
176.896394,-135,-160,55,1024
176.897392,-131,-124,55,1156
176.898369,-130,-115,55,1156
176.899444,-136,-136,55,729
176.90037,-143,-206,55,256
176.901382,-151,-303,55,9
176.902392,-159,-360,55,121
176.903369,-166,-315,55,484
176.904377,-172,-212,55,841
176.905347,-178,-118,55,1444
176.906334,-181,-73,55,2116
176.907349,-182,-96,55,2601
176.908327,-181,-145,55,2601
176.909292,-181,-171,55,2025
176.910297,-180,-164,55,1369
176.911318,-180,-163,55,841
176.912288,-180,-159,55,441
176.913301,-179,-167,55,169
176.914267,-178,-195,55,36
176.915303,-180,-241,55,4
176.916257,-185,-249,55,16
176.917271,-190,-235,55,64
176.918302,-196,-223,55,225
176.919263,-199,-206,55,324
176.920243,-198,-189,55,324
176.921267,-191,-157,55,121
176.922219,-178,-110,55,4
176.923248,-168,-103,55,121
176.924231,-163,-121,55,225
176.925325,-163,-116,55,289
176.926213,-165,-112,55,400
176.927182,-166,-117,55,576
176.928187,-166,-138,55,900
176.929182,-166,-171,55,1089
176.930154,-165,-141,55,1089
176.931156,-160,-63,55,961
176.932144,-153,-32,55,625
176.933176,-149,-83,55,361
176.934144,-149,-183,55,196
176.935192,-150,-271,55,169
176.936121,-152,-298,55,169
176.937123,-154,-268,55,144
176.938119,-154,-224,55,144
176.939099,-154,-198,55,144
176.940121,-155,-222,55,100
176.941082,-158,-204,55,4
176.942092,-159,-135,55,36
176.94307,-159,-106,55,100
176.944079,-159,-117,55,100
176.945073,-160,-135,55,100
176.946095,-163,-181,55,121
176.947057,-168,-212,55,196
176.948039,-173,-227,55,361
176.949081,-176,-242,55,484
176.950021,-180,-223,55,625
176.951028,-185,-160,55,729
176.952085,-190,-133,55,961
176.953448,-194,-161,55,1225
176.95403,-195,-206,55,1296
176.955008,-192,-204,55,1024
176.955991,-188,-213,55,625
176.957,-186,-245,55,324
176.958041,-188,-259,55,225
176.959,-190,-225,55,196
176.960021,-186,-155,55,36
176.960991,-181,-96,55,16
176.961932,-178,-87,55,144
176.962972,-179,-124,55,225
176.963921,-182,-166,55,169
176.964969,-183,-170,55,81
176.965939,-182,-151,55,36
176.966918,-179,-153,55,49
176.967986,-177,-185,55,121
176.969065,-175,-204,55,225
176.969895,-174,-207,55,144
176.970922,-176,-187,55,25
176.971874,-176,-142,55,4
176.972861,-173,-110,55,36
176.973874,-169,-114,55,169
176.974874,-165,-135,55,324
176.975878,-162,-145,55,400
176.976958,-157,-140,55,484
176.977844,-151,-142,55,676
176.978825,-148,-167,55,729
176.979823,-151,-210,55,529
176.980819,-160,-271,55,256
176.981831,-169,-279,55,49
176.982815,-174,-231,55,1
176.983842,-174,-166,55,25
176.984809,-174,-161,55,81
176.98581,-176,-190,55,196
176.98678,-178,-193,55,441
176.987788,-177,-166,55,676
176.988795,-177,-196,55,841
176.989752,-178,-232,55,729
176.990739,-180,-238,55,400
176.991734,-184,-209,55,225
176.992753,-187,-173,55,169
176.993754,-187,-124,55,169
176.99474,-184,-73,55,100
176.995726,-180,-63,55,16
176.99671,-178,-88,55,0
176.997699,-176,-113,55,1
176.998701,-175,-153,55,4
176.99972,-174,-187,55,16
177.000671,-170,-189,55,100
177.00166,-166,-186,55,324
177.002642,-164,-200,55,529
177.003683,-165,-191,55,484
177.00467,-166,-176,55,324
177.005653,-164,-156,55,256
177.006645,-161,-119,55,289
177.007639,-159,-131,55,289
177.00862,-158,-181,55,289
177.009618,-156,-199,55,324
177.010607,-153,-178,55,289
177.011594,-151,-159,55,225
177.012591,-150,-157,55,196
177.013583,-153,-177,55,144
177.014581,-159,-197,55,49
177.015545,-166,-200,55,4
177.01657,-171,-190,55,100
177.017577,-175,-184,55,256
177.018561,-176,-176,55,324
177.019551,-174,-155,55,324
177.020536,-170,-114,55,289
177.021543,-164,-52,55,169
177.022535,-155,-29,55,25
177.023514,-148,-56,55,25
177.024538,-143,-74,55,256
177.025527,-140,-100,55,676
177.026481,-143,-167,55,784
177.027465,-148,-233,55,729
177.028482,-151,-233,55,625
177.029513,-149,-178,55,625
177.030458,-147,-133,55,529
177.031465,-145,-110,55,361
177.032464,-142,-96,55,169
177.033474,-139,-131,55,81
177.034443,-140,-208,55,9
177.035449,-142,-237,55,4
177.036419,-142,-190,55,1
177.037434,-141,-177,55,49
177.038487,-143,-202,55,64
177.039411,-147,-249,55,4
177.040408,-156,-276,55,81
177.041401,-166,-258,55,441
177.042379,-175,-202,55,1089
177.043384,-180,-160,55,1681
177.044391,-185,-184,55,2025
177.045401,-192,-237,55,2500
177.046392,-196,-246,55,2916
177.047358,-196,-228,55,3025
177.048344,-193,-186,55,2500
177.049333,-191,-125,55,1936
177.05033,-189,-90,55,1089
177.051329,-188,-99,55,484
177.052322,-188,-104,55,169
177.0534,-186,-78,55,36
177.054299,-178,-51,55,49
177.055299,-169,-61,55,529
177.05629,-162,-55,55,1156
177.057293,-156,-42,55,1600
177.058321,-150,-88,55,1849
177.059312,-145,-149,55,2116
177.060286,-141,-195,55,2304
177.061271,-140,-234,55,2304
177.062252,-143,-270,55,2025
177.063272,-149,-283,55,1369
177.064294,-155,-292,55,529
177.065259,-157,-285,55,144
177.066216,-157,-241,55,25
177.067234,-153,-155,55,9
177.068186,-149,-96,55,1
177.069225,-147,-86,55,4
177.070221,-146,-76,55,25
177.071194,-143,-41,55,9
177.072175,-139,-13,55,16
177.073162,-135,-5,55,196
177.074158,-134,-32,55,441
177.07516,-135,-82,55,484
177.076161,-138,-116,55,361
177.077132,-143,-138,55,100
177.07814,-147,-169,55,4
177.079127,-149,-187,55,4
177.080125,-148,-179,55,4
177.081123,-144,-147,55,1
177.082228,-135,-100,55,16
177.083111,-125,-88,55,100
177.08411,-118,-140,55,256
177.085093,-113,-188,55,484
177.086093,-110,-181,55,784
177.087101,-110,-163,55,1089
177.088089,-113,-150,55,1156
177.089084,-114,-108,55,1225
177.090064,-115,-92,55,1089
177.091063,-117,-87,55,729
177.09207,-119,-57,55,256
177.09304,-121,-38,55,16
177.094022,-121,-22,55,9
177.095022,-118,-31,55,25
177.096026,-115,-54,55,25
177.097014,-112,-75,55,4
177.098008,-108,-97,55,25
177.099023,-104,-105,55,100
177.099987,-101,-107,55,196
177.100989,-99,-113,55,324
177.101996,-100,-115,55,361
177.102997,-99,-74,55,484
177.103951,-91,12,55,900
177.104949,-80,38,55,1444
177.10593,-71,2,55,1936
177.106917,-65,-38,55,2209
177.107974,-61,-74,55,2209
177.109012,-59,-68,55,2025
177.109952,-57,-61,55,1936
177.110927,-57,-82,55,1764
177.111941,-60,-108,55,1600
177.112903,-63,-106,55,1296
177.113904,-67,-111,55,576
177.114897,-71,-109,55,81
177.115904,-71,-54,55,0
177.116865,-66,28,55,1
177.117869,-59,43,55,4
177.118872,-54,-12,55,25
177.119954,-52,-60,55,25
177.120889,-51,-86,55,36
177.12186,-50,-109,55,100
177.122836,-53,-119,55,100
177.123823,-58,-84,55,81
177.124812,-62,-59,55,81
177.125828,-65,-53,55,36
177.126822,-66,-46,55,0
177.127836,-64,-48,55,25
177.128767,-64,-73,55,100
177.129784,-67,-115,55,225
177.130758,-71,-155,55,400
177.131772,-74,-174,55,576
177.132754,-77,-164,55,576
177.133767,-79,-143,55,441
177.134747,-78,-96,55,256
177.135732,-77,-36,55,144
177.136752,-77,28,55,121
177.13772,-75,75,55,121
177.138704,-71,70,55,49
177.139683,-67,26,55,0
177.140696,-63,-11,55,64
177.141707,-59,-19,55,225
177.142675,-56,-61,55,441
177.143701,-57,-107,55,484
177.144675,-60,-121,55,324
177.145676,-64,-139,55,169
177.146673,-71,-167,55,36
177.14766,-76,-163,55,1
177.148662,-79,-135,55,64
177.149634,-81,-139,55,196
177.150619,-81,-166,55,324
177.151633,-80,-146,55,441
177.15263,-77,-103,55,441
177.153624,-74,-98,55,289
177.154598,-76,-119,55,256
177.155614,-82,-157,55,324
177.156585,-92,-178,55,441
177.157576,-106,-200,55,900
177.158629,-120,-210,55,1681
177.159563,-130,-189,55,2401
177.160557,-137,-133,55,3136
177.161595,-141,-100,55,3721
177.162539,-143,-107,55,4356
177.163579,-144,-130,55,4900
177.164531,-145,-134,55,4761
177.165526,-145,-138,55,3969
177.166513,-144,-161,55,2704
177.167542,-145,-183,55,1521
177.168521,-152,-269,55,1024
177.169497,-162,-346,55,1024
177.170502,-172,-354,55,1225
177.171496,-180,-313,55,1521
177.172481,-187,-244,55,1936
177.173503,-190,-164,55,2116
177.174493,-193,-161,55,2304
177.175485,-194,-177,55,2401
177.176521,-192,-141,55,2304
177.177452,-188,-123,55,1849
177.178455,-186,-164,55,1156
177.179481,-186,-199,55,576
177.180435,-190,-204,55,324
177.181444,-195,-207,55,225
177.182462,-202,-244,55,225
177.183431,-207,-232,55,289
177.184393,-209,-184,55,256
177.185387,-210,-148,55,256
177.186371,-208,-127,55,256
177.187341,-204,-105,55,256
177.188396,-196,-108,55,100
177.189379,-187,-158,55,1
177.190349,-180,-215,55,100
177.19137,-176,-242,55,361
177.19234,-176,-242,55,676
177.193327,-180,-239,55,729
177.194321,-184,-242,55,625
177.195309,-186,-218,55,576
177.196303,-188,-174,55,400
177.1973,-189,-156,55,225
177.198274,-189,-162,55,49
177.199297,-188,-181,55,1
177.200307,-188,-197,55,64
177.201278,-187,-185,55,121
177.202274,-183,-167,55,49
177.203271,-180,-178,55,0
177.204261,-181,-194,55,9
177.205249,-182,-168,55,16
177.206243,-182,-137,55,36
177.207235,-185,-147,55,16
177.208257,-188,-181,55,1
177.209264,-192,-233,55,16
177.210231,-195,-282,55,49
177.211199,-198,-303,55,121
177.212203,-204,-350,55,441
177.213187,-212,-412,55,1024
177.214181,-222,-433,55,1681
177.215205,-231,-397,55,2401
177.216173,-237,-296,55,3025
177.217172,-240,-213,55,3025
177.218149,-243,-220,55,3025
177.21914,-246,-247,55,2916
177.220154,-248,-244,55,2809
177.221161,-250,-212,55,2704
177.222119,-249,-159,55,2025
177.223133,-246,-112,55,1156
177.224121,-242,-104,55,400
177.225094,-239,-125,55,64
177.226113,-239,-137,55,4
177.227133,-239,-130,55,1
177.228104,-232,-52,55,121
177.229097,-217,62,55,841
177.230125,-197,123,55,2601
177.231076,-175,135,55,5625
177.232088,-150,147,55,9801
177.23307,-121,173,55,15625
177.234053,-90,195,55,23104
177.235047,-59,213,55,32400
177.236037,-34,214,55,42025
177.237034,-10,255,55,52441
177.238034,16,315,55,61504
177.239021,44,332,55,68121
177.240016,73,318,55,72900
177.240995,97,271,55,73984
177.242002,116,227,55,70756
177.242992,132,213,55,64009
177.243964,147,188,55,56169
177.245002,158,101,55,47089
177.245975,165,0,55,39601
177.246961,170,-36,55,32400
177.247975,170,-55,55,23716
177.24894,163,-64,55,14161
177.249931,153,-87,55,6400
177.250951,141,-100,55,1936
177.251917,128,-105,55,144
177.25299,113,-127,55,361
177.253945,97,-136,55,2500
177.254908,80,-130,55,6084
177.255935,61,-153,55,10816
177.256906,38,-221,55,17424
177.25792,8,-283,55,26244
177.258886,-22,-285,55,34225
177.259874,-50,-246,55,41209
177.260866,-74,-197,55,46225
177.261866,-92,-133,55,48400
177.262851,-106,-79,55,47961
177.263851,-120,-79,55,47089
177.264836,-132,-151,54,44944
177.265838,-143,-222,54,41616
177.266847,-156,-280,54,37636
177.267834,-168,-295,54,30976
177.268827,-182,-341,54,25600
177.269801,-197,-389,54,21609
177.270832,-208,-329,54,17956
177.271817,-214,-224,54,14884
177.272804,-217,-185,54,12321
177.27379,-219,-170,54,9801
177.27477,-218,-120,54,7396
177.275768,-215,-93,54,5184
177.276768,-209,-107,54,2809
177.277766,-202,-134,54,1156
177.278745,-195,-149,54,169
177.279748,-190,-145,54,49
177.280735,-188,-149,54,400
177.281745,-187,-127,54,729
177.282742,-190,-134,54,729
177.283741,-196,-194,54,529
177.284726,-201,-246,53,289
177.28571,-203,-260,53,144
177.286726,-202,-275,53,49
177.288024,-202,-286,53,0
177.288876,-199,-277,53,16
177.289746,-193,-268,53,9
177.290692,-187,-222,53,1
177.29168,-184,-161,53,9
177.292725,-183,-160,53,49
177.293651,-183,-174,53,169
177.294634,-186,-176,53,225
177.295654,-191,-195,53,144
177.296624,-197,-225,53,25
177.297663,-202,-234,53,0
177.298604,-206,-241,53,49
177.299606,-209,-196,53,256
177.300606,-208,-125,53,441
177.301594,-207,-108,53,529
177.302598,-208,-150,53,625
177.303599,-208,-196,53,625
177.304583,-204,-174,53,324
177.305598,-198,-146,53,49
177.306591,-193,-171,53,16
177.307565,-190,-212,53,144
177.308591,-189,-257,53,289
177.309549,-189,-276,53,400
177.31056,-191,-262,53,289
177.311527,-195,-244,53,144
177.31254,-198,-221,53,100
177.313525,-199,-189,53,81
177.314494,-199,-179,53,25
177.315566,-197,-162,53,1
177.316489,-195,-176,53,4
177.317473,-194,-219,53,16
177.318541,-195,-255,53,36
177.319488,-200,-290,53,121
177.3206,-207,-275,53,256
177.321471,-215,-261,53,400
177.322458,-219,-229,53,441
177.323445,-218,-182,53,361
177.324445,-218,-166,53,361
177.32544,-220,-191,53,529
177.326502,-221,-194,53,676
177.327424,-220,-188,53,676
177.328415,-215,-168,53,400
177.329414,-210,-170,53,100
177.330417,-208,-229,53,1
177.331422,-211,-295,53,16
177.332382,-216,-321,53,9
177.333386,-221,-283,53,9
177.334364,-223,-231,53,25
177.335343,-224,-182,53,16
177.336348,-222,-140,53,1
177.337449,-218,-122,53,4
177.33836,-213,-162,53,4
177.339349,-209,-214,53,1
177.340331,-205,-196,53,9
177.341333,-199,-141,53,144
177.342327,-195,-152,53,441
177.343296,-195,-172,53,676
177.344308,-195,-177,53,784
177.345362,-195,-188,53,841
177.3463,-196,-215,53,676
177.347305,-199,-236,53,361
177.348275,-202,-233,53,121
177.349297,-203,-193,53,36
177.350277,-199,-151,53,36
177.351308,-193,-172,53,36
177.352267,-187,-205,53,64
177.353265,-183,-196,53,144
177.354237,-180,-173,53,225
177.355232,-179,-157,53,256
177.356229,-179,-153,53,289
177.357233,-181,-155,53,324
177.358241,-181,-167,53,441
177.359206,-179,-166,53,576
177.360195,-177,-151,53,484
177.361176,-177,-140,53,256
177.362182,-174,-106,53,169
177.363168,-171,-112,53,144
177.364154,-170,-150,53,100
177.365162,-170,-184,53,81
177.366149,-170,-228,53,81
177.36714,-171,-253,53,100
177.368152,-172,-240,53,81
177.369135,-172,-210,53,49
177.37016,-174,-191,53,9
177.371129,-174,-164,53,9
177.37219,-171,-145,53,9
177.373122,-170,-165,53,1
177.374093,-172,-217,53,4
177.375077,-177,-262,53,49
177.37608,-184,-291,53,196
177.377092,-192,-323,53,441
177.378078,-198,-274,53,676
177.379063,-199,-197,53,729
177.380055,-200,-163,53,676
177.381128,-201,-161,53,729
177.382059,-203,-143,53,1024
177.383019,-204,-129,53,1156
177.384013,-203,-134,53,961
177.385045,-201,-146,53,576
177.386025,-199,-187,53,225
177.387062,-200,-268,53,64
177.388036,-205,-341,53,49
177.389037,-212,-362,53,169
177.390024,-218,-299,53,324
177.390977,-219,-189,53,324
177.392015,-219,-139,53,256
177.392971,-219,-170,53,225
177.393958,-218,-203,53,225
177.394942,-214,-187,53,169
177.395953,-208,-174,53,81
177.396954,-202,-190,53,4
177.397947,-197,-185,53,64
177.398928,-197,-182,53,225
177.399919,-196,-147,53,484
177.400934,-194,-134,53,625
177.401911,-194,-137,53,625
177.402938,-193,-110,53,676
177.403975,-190,-62,53,784
177.404894,-184,-41,53,900
177.405892,-179,-83,53,841
177.40689,-172,-131,53,900
177.407872,-163,-149,53,1156
177.408868,-152,-151,53,2025
177.409858,-144,-136,53,2704
177.410886,-142,-148,53,2704
177.411854,-144,-187,53,2500
177.412824,-147,-231,53,2116
177.413826,-149,-240,53,1681
177.414865,-151,-220,53,1089
177.415823,-152,-190,53,729
177.41682,-150,-153,53,484
177.417848,-145,-89,53,324
177.418806,-139,-53,53,169
177.419812,-135,-80,53,81
177.42085,-134,-118,53,64
177.421772,-135,-140,53,81
177.422815,-136,-146,53,121
177.423753,-141,-151,53,64
177.424748,-148,-174,53,9
177.425752,-152,-171,53,0
177.426751,-152,-141,53,4
177.427729,-153,-155,53,64
177.428729,-154,-170,53,225
177.429719,-155,-165,53,400
177.430702,-156,-172,53,484
177.431715,-157,-199,53,484
177.432699,-155,-197,53,361
177.43371,-152,-183,53,121
177.43469,-151,-189,53,9
177.435695,-152,-218,53,0
177.436663,-156,-228,53,16
177.437677,-163,-228,53,100
177.438659,-171,-208,53,289
177.439666,-175,-170,53,400
177.440645,-175,-113,53,361
177.441642,-172,-89,53,225
177.442673,-168,-66,53,169
177.443654,-164,-56,53,144
177.44462,-160,-102,53,81
177.445617,-160,-174,53,64
177.446665,-164,-223,53,64
177.44759,-169,-241,53,36
177.44859,-170,-201,53,1
177.449585,-170,-153,53,25
177.450584,-168,-142,53,49
177.451572,-165,-138,53,49
177.452553,-162,-145,53,36
177.453523,-161,-160,53,9
177.454579,-159,-141,53,1
177.455585,-154,-126,53,36
177.456554,-150,-144,53,196
177.457588,-148,-180,53,441
177.458624,-148,-213,53,484
177.459546,-150,-222,53,400
177.460511,-154,-187,53,196
177.461491,-156,-126,53,81
177.462486,-156,-70,53,36
177.463493,-156,-44,53,25
177.464473,-152,-36,53,49
177.46545,-146,-39,53,64
177.466468,-138,-67,53,144
177.467468,-131,-96,53,289
177.468459,-125,-99,53,529
177.469491,-121,-69,53,841
177.470442,-117,-67,53,1369
177.471451,-115,-96,53,1681
177.472444,-115,-131,53,1681
177.473425,-115,-172,53,1681
177.474415,-117,-174,53,1225
177.475409,-118,-138,53,784
177.476391,-117,-128,53,441
177.477383,-113,-97,53,324
177.478381,-105,-69,53,400
177.479395,-97,-48,53,576
177.480372,-88,-9,53,841
177.481374,-82,-2,53,1089
177.482357,-79,-21,53,1296
177.48334,-78,-15,53,1369
177.484353,-77,-15,53,1600
177.485356,-75,-2,53,1849
177.486323,-70,26,53,2209
177.487314,-64,28,53,2401
177.488307,-59,-10,53,2116
177.489328,-58,-36,53,1521
177.490349,-57,-49,53,961
177.491316,-55,-48,53,729
177.492317,-51,-65,53,784
177.493307,-48,-117,53,900
177.494288,-48,-169,53,841
177.49528,-51,-187,53,576
177.496275,-53,-170,53,289
177.497254,-53,-106,53,121
177.498263,-53,-65,53,36
177.49925,-57,-124,53,1
177.50025,-64,-155,53,49
177.501254,-69,-92,53,196
177.502219,-68,-14,53,289
177.503217,-66,21,53,324
177.504206,-64,33,53,256
177.505211,-61,50,53,100
177.506231,-60,65,53,49
177.507212,-58,61,53,25
177.50823,-57,15,53,16
177.509194,-57,-48,53,0
177.510181,-57,-46,53,49
177.511148,-56,-17,53,169
177.512149,-54,-26,53,196
177.513138,-51,-67,53,225
177.514127,-46,-72,53,324
177.515139,-38,-14,53,529
177.516124,-28,21,53,1024
177.51711,-24,-27,53,1156
177.518108,-24,-66,53,1089
177.519106,-20,-45,53,1369
177.520138,-14,-26,53,1849
177.521095,-9,2,53,2209
177.522091,-8,2,53,2116
177.523077,-10,-10,53,1681
177.524068,-13,-23,53,1089
177.525073,-18,-68,53,400
177.526066,-26,-84,53,4
177.527032,-32,-65,53,64
177.528134,-35,-42,53,121
177.529035,-33,2,53,169
177.530039,-31,-13,53,289
177.531041,-34,-80,53,625
177.532025,-35,-50,53,729
177.53301,-31,13,53,441
177.534017,-26,27,53,169
177.534996,-25,8,53,49
177.536,-27,-14,53,1
177.536995,-29,-70,53,9
177.537996,-34,-156,53,1
177.539046,-40,-168,53,49
177.539963,-45,-126,53,196
177.540959,-49,-89,53,225
177.541956,-53,-74,53,324
177.54293,-56,-58,53,625
177.54395,-55,-21,53,841
177.544948,-53,-22,53,784
177.545937,-53,-77,53,676
177.546933,-57,-155,53,784
177.54792,-66,-224,53,1024
177.5489,-77,-215,53,1369
177.549908,-86,-191,53,1681
177.550917,-92,-203,53,1849
177.551892,-100,-202,53,2209
177.552887,-109,-174,53,2809
177.553881,-116,-118,53,3721
177.554874,-120,-59,53,4489
177.555907,-122,-66,53,4761
177.556848,-125,-131,53,4624
177.557862,-127,-182,53,3721
177.558866,-130,-230,53,2809
177.559858,-135,-229,53,2401
177.560863,-137,-135,53,2025
177.561824,-137,-75,53,1369
177.562806,-139,-93,53,900
177.563802,-144,-111,53,784
177.564804,-148,-112,53,784
177.565808,-149,-95,53,729
177.566796,-146,-89,53,441
177.567788,-141,-139,53,196
177.568769,-141,-205,53,121
177.569785,-143,-238,53,64
177.570806,-147,-284,53,100
177.571772,-154,-336,53,289
177.572759,-163,-346,53,576
177.573742,-173,-322,53,841
177.574767,-185,-309,53,1369
177.575734,-195,-267,53,2116
177.577103,-199,-200,53,2809
177.577771,-197,-153,53,3136
177.578697,-194,-167,53,2809
177.579699,-193,-199,53,2500
177.580706,-197,-214,53,2500
177.581693,-203,-199,53,2401
177.582697,-208,-195,53,2025
177.583671,-214,-229,53,1681
177.58467,-220,-229,53,1225
177.585656,-225,-196,53,900
177.586657,-229,-172,53,900
177.587648,-232,-197,53,1225
177.588629,-234,-253,53,1600
177.589692,-237,-292,53,1936
177.59061,-237,-294,53,1600
177.591653,-235,-288,53,1024
177.5926,-233,-296,53,625
177.593603,-231,-294,53,289
177.594598,-229,-257,53,81
177.595597,-227,-242,53,4
177.596569,-230,-259,53,1
177.597564,-235,-257,53,9
177.598563,-239,-244,53,25
177.599563,-241,-233,53,16
177.600549,-243,-254,53,36
177.601583,-247,-272,53,144
177.602584,-250,-266,53,289
177.603538,-251,-252,53,400
177.604542,-252,-247,53,529
177.605536,-255,-246,53,784
177.606568,-256,-196,53,676
177.607531,-254,-161,53,361
177.608503,-253,-226,53,196
177.609483,-255,-343,53,196
177.610479,-264,-471,53,441
177.611481,-275,-506,53,784
177.612458,-282,-425,53,1024
177.613439,-283,-323,53,1024
177.61443,-282,-243,53,900
177.615424,-281,-225,53,676
177.616479,-280,-225,53,576
177.61743,-279,-244,53,625
177.618439,-281,-272,53,784
177.619431,-282,-268,53,729
177.62041,-282,-243,53,324
177.621423,-281,-254,53,36
177.622391,-282,-281,53,0
177.623402,-284,-292,53,1
177.624369,-286,-287,53,16
177.62549,-287,-282,53,36
177.626381,-291,-277,53,121
177.627386,-297,-273,53,324
177.628359,-299,-266,53,324
177.629348,-296,-275,53,196
177.630351,-289,-333,53,49
177.631324,-281,-345,53,0
177.632332,-276,-327,53,36
177.633338,-276,-325,53,64
177.634312,-279,-302,53,49
177.635277,-281,-272,53,36
177.6363,-283,-254,53,64
177.63733,-282,-222,53,225
177.638282,-278,-192,53,441
177.6393,-274,-198,53,484
177.64028,-273,-232,53,256
177.641265,-274,-256,53,49
177.642267,-272,-249,53,16
177.643263,-270,-257,53,36
177.644236,-270,-292,53,81
177.645284,-273,-340,53,64
177.646222,-278,-362,53,25
177.647206,-282,-361,53,0
177.648212,-286,-346,53,64
177.64929,-289,-325,53,225
177.650268,-287,-311,53,196
177.651205,-284,-277,53,100
177.652198,-280,-243,53,64
177.65319,-274,-207,53,16
177.654227,-267,-166,53,9
177.655197,-261,-156,53,144
177.656196,-258,-181,53,400
177.657143,-256,-196,53,676
177.658154,-257,-205,53,841
177.659129,-261,-286,53,784
177.660131,-265,-306,53,484
177.661115,-263,-223,53,441
177.662114,-261,-196,53,361
177.663126,-261,-259,53,169
177.664101,-263,-329,53,16
177.665093,-265,-381,53,16
177.666097,-267,-398,53,81
177.667091,-267,-374,53,121
177.668069,-266,-328,53,81
177.669061,-262,-242,53,1
177.670116,-255,-159,53,100
177.671044,-247,-121,53,256
177.672041,-242,-155,53,361
177.673054,-243,-214,53,324
177.674065,-247,-250,53,256
177.675007,-254,-289,53,121
177.676025,-259,-280,53,64
177.677002,-261,-252,53,36
177.677998,-264,-255,53,4
177.679006,-263,-278,53,1
177.679979,-263,-299,53,64
177.680967,-267,-298,53,400
177.681955,-272,-290,53,900
177.682967,-274,-315,53,961
177.683999,-275,-332,53,784
177.684973,-273,-355,53,361
177.685905,-272,-375,53,169
177.686945,-270,-324,53,81
177.687955,-266,-260,53,4
177.688941,-266,-248,53,9
177.689949,-271,-249,53,64
177.690914,-277,-245,53,100
177.691942,-283,-268,53,121
177.692891,-286,-284,53,144
177.693889,-286,-250,53,121
177.694871,-282,-203,53,81
177.695875,-278,-193,53,36
177.696856,-275,-203,53,25
177.697842,-272,-193,53,36
177.69885,-267,-182,53,1
177.699857,-263,-214,53,64
177.700844,-261,-262,53,256
177.70187,-261,-275,53,484
177.702869,-258,-270,53,784
177.703818,-255,-268,53,961
177.704824,-250,-247,53,1024
177.705808,-241,-200,53,1369
177.706838,-233,-169,53,1764
177.707834,-229,-175,53,1849
177.708863,-227,-208,53,1600
177.709783,-227,-258,53,1296
177.71077,-230,-295,53,961
177.711771,-231,-282,53,900
177.712759,-230,-267,53,784
177.713754,-230,-261,53,625
177.714735,-234,-268,53,256
177.71573,-237,-262,53,16
177.716807,-239,-243,53,36
177.717747,-239,-198,53,100
177.718733,-239,-175,53,144
177.719746,-237,-183,53,100
177.720761,-235,-218,53,25
177.721724,-234,-247,53,9
177.722689,-232,-238,53,4
177.723701,-231,-249,53,1
177.724678,-233,-283,53,1
177.725674,-238,-294,53,1
177.726707,-244,-295,53,25
177.727652,-249,-280,53,100
177.728641,-254,-294,53,225
177.729645,-256,-303,53,361
177.730631,-256,-306,53,441
177.731624,-256,-284,53,484
177.732605,-256,-268,53,576
177.733624,-256,-250,53,625
177.734606,-254,-223,53,441
177.735624,-252,-236,53,196
177.736612,-253,-258,53,81
177.737603,-254,-220,53,25
177.738585,-255,-185,53,1
177.739573,-255,-183,53,1
177.740556,-253,-192,53,9
177.741593,-251,-197,53,25
177.742538,-249,-195,53,49
177.743541,-245,-183,53,121
177.744531,-240,-182,53,196
177.745508,-237,-221,53,225
177.746527,-236,-273,53,289
177.747523,-236,-277,53,324
177.748502,-233,-235,53,484
177.749494,-226,-180,53,841
177.750495,-219,-165,53,1156
177.751478,-215,-200,53,1296
177.752485,-215,-261,53,1156
177.753445,-217,-298,53,784
177.754463,-221,-302,53,361
177.755455,-224,-289,53,169
177.756456,-225,-277,53,121
177.757459,-228,-284,53,64
177.758431,-234,-304,53,1
177.759451,-239,-289,53,169
177.760412,-240,-215,53,441
177.761423,-241,-206,53,676
177.762409,-244,-252,53,841
177.763394,-247,-258,53,900
177.764395,-250,-225,53,841
177.765378,-248,-182,53,576
177.766377,-244,-207,53,361
177.767404,-243,-248,53,225
177.768361,-243,-237,53,81
177.769379,-244,-200,53,25
177.770364,-245,-177,53,25
177.771367,-242,-145,53,1
177.772345,-234,-110,53,100
177.773336,-224,-96,53,529
177.77433,-215,-110,53,1225
177.775328,-209,-170,53,1521
177.776306,-206,-234,53,1444
177.777294,-205,-261,53,1444
177.778301,-203,-251,53,1600
177.779309,-204,-324,53,1600
177.780298,-213,-379,53,1024
177.781282,-219,-339,53,529
177.782265,-220,-259,53,196
177.783267,-216,-195,53,64
177.784251,-212,-141,53,9
177.785269,-208,-103,53,1
177.786259,-203,-107,53,9
177.787243,-200,-188,53,25
177.788247,-203,-283,53,0
177.789237,-209,-334,53,25
177.790216,-217,-323,53,16
177.791203,-224,-285,53,25
177.792219,-231,-254,53,121
177.793176,-239,-264,53,529
177.794175,-247,-271,53,1225
177.795179,-251,-245,53,1849
177.796177,-251,-234,53,2304
177.79718,-248,-202,53,2304
177.798178,-243,-140,53,1600
177.799155,-232,-114,53,529
177.800143,-221,-149,53,16
177.801129,-215,-229,53,81
177.802138,-218,-316,53,169
177.803125,-225,-343,53,196
177.804139,-235,-329,53,144
177.805113,-245,-317,53,36
177.806097,-256,-322,53,25
177.807074,-261,-294,53,169
177.808092,-260,-251,53,289
177.809071,-254,-216,53,484
177.810073,-246,-168,53,625
177.811073,-237,-96,53,484
177.812195,-229,-99,53,121
177.813046,-224,-158,53,1
177.814044,-220,-200,53,225
177.815032,-218,-210,53,729
177.816027,-219,-241,53,1369
177.81701,-223,-288,53,1444
177.818052,-231,-296,53,841
177.819067,-240,-306,53,196
177.820024,-251,-366,53,25
177.82107,-259,-377,53,484
177.822007,-260,-340,53,961
177.822974,-258,-306,53,1156
177.823976,-255,-276,53,1225
177.824973,-251,-223,53,1089
177.825951,-241,-136,53,484
177.826955,-231,-95,53,64
177.827944,-225,-118,53,36
177.82899,-223,-173,53,289
177.829915,-225,-215,53,676
177.830942,-233,-249,53,676
177.831929,-242,-292,53,324
177.832915,-251,-327,53,49
177.833922,-258,-346,53,9
177.834902,-263,-310,53,144
177.835908,-265,-285,53,576
177.836893,-264,-270,53,1089
177.837894,-261,-237,53,1296
177.838881,-259,-249,53,1296
177.839869,-255,-294,53,900
177.840845,-250,-281,53,289
177.841913,-244,-221,53,4
177.842864,-236,-139,53,225
177.843852,-225,-67,53,1089
177.844825,-218,-83,53,2025
177.845846,-219,-146,53,2116
177.846816,-224,-194,53,1600
177.847807,-228,-199,53,1089
177.848801,-229,-191,53,900
177.849771,-226,-158,53,841
177.850794,-222,-164,53,784
177.851796,-219,-230,53,625
177.852793,-217,-287,53,361
177.853787,-214,-288,53,121
177.854771,-212,-278,53,36
177.855762,-213,-308,53,36
177.856801,-217,-337,53,49
177.857756,-221,-333,53,49
177.858776,-223,-282,53,36
177.859737,-220,-236,53,36
177.860717,-217,-222,53,25
177.861725,-218,-228,53,1
177.862718,-223,-255,53,36
177.863699,-234,-271,53,400
177.864688,-243,-277,53,961
177.865703,-249,-252,53,1296
177.866674,-248,-189,53,961
177.86767,-245,-130,53,576
177.868694,-242,-137,53,361
177.869693,-244,-198,53,576
177.87066,-249,-262,53,1024
177.871648,-253,-305,53,1225
177.872669,-254,-314,53,961
177.873663,-254,-293,53,400
177.875136,-254,-275,53,121
177.875931,-251,-246,53,4
177.876844,-243,-174,53,25
177.8779,-232,-119,53,169
177.878614,-226,-151,53,256
177.87969,-225,-212,53,361
177.880594,-226,-245,53,529
177.881581,-227,-264,53,676
177.882581,-228,-269,53,676
177.883604,-227,-242,53,729
177.884557,-225,-244,53,841
177.885565,-226,-264,53,625
177.886541,-231,-294,53,144
177.887565,-239,-294,53,49
177.888565,-245,-254,53,361
177.889513,-245,-189,53,400
177.890504,-238,-132,53,144
177.891531,-230,-145,53,9
177.892501,-224,-189,53,16
177.893501,-221,-231,53,36
177.894482,-219,-237,53,36
177.895486,-219,-244,53,49
177.896478,-224,-286,53,49
177.897458,-235,-334,53,16
177.898457,-243,-313,53,4
177.899438,-245,-253,53,0
177.900436,-244,-230,53,36
177.901441,-245,-278,53,225
177.90244,-248,-329,53,576
177.903453,-252,-328,53,961
177.904489,-256,-319,53,1369
177.905422,-258,-293,53,1521
177.90648,-253,-205,53,841
177.907413,-244,-120,53,81
177.908405,-236,-85,53,49
177.909395,-231,-95,53,196
177.910384,-232,-150,53,144
177.911361,-235,-197,53,100
177.912363,-235,-196,53,169
177.913354,-232,-163,53,400
177.914353,-229,-178,53,729
177.915354,-227,-210,53,961
177.916346,-226,-258,53,729
177.917338,-223,-280,53,441
177.91838,-219,-233,53,289
177.919351,-217,-214,53,196
177.92033,-217,-233,53,225
177.921339,-216,-254,53,361
177.922302,-212,-249,53,529
177.923297,-207,-228,53,625
177.924293,-202,-214,53,729
177.925367,-198,-217,53,841
177.926262,-199,-220,53,729
177.927294,-202,-190,53,441
177.928273,-205,-144,53,196
177.92928,-208,-150,53,81
177.930256,-210,-200,53,49
177.931253,-214,-267,53,4
177.932233,-217,-255,53,25
177.933215,-220,-219,53,169
177.934231,-221,-195,53,361
177.935212,-221,-221,53,529
177.936212,-221,-253,53,484
177.937223,-219,-243,53,289
177.938209,-218,-209,53,169
177.939209,-217,-190,53,81
177.940202,-214,-180,53,16
177.941208,-210,-183,53,16
177.942174,-207,-185,53,100
177.943156,-205,-188,53,225
177.944238,-204,-196,53,289
177.945202,-204,-208,53,289
177.946152,-204,-218,53,289
177.947111,-205,-223,53,196
177.948126,-210,-229,53,64
177.949126,-214,-233,53,9
177.950131,-216,-246,53,4
177.951117,-217,-284,53,49
177.952106,-219,-306,53,144
177.953143,-223,-298,53,324
177.954093,-226,-255,53,484
177.955107,-226,-213,53,484
177.956082,-223,-198,53,361
177.957073,-221,-197,53,256
177.958065,-220,-194,53,100
177.959053,-220,-190,53,36
177.960055,-221,-198,53,25
177.961098,-223,-224,53,36
177.96203,-227,-263,53,64
177.963006,-233,-299,53,100
177.963999,-240,-343,53,196
177.965006,-249,-379,53,529
177.966114,-258,-399,53,1225
177.966999,-265,-377,53,1936
177.968013,-270,-326,53,2500
177.970152,-271,-244,53,2601
177.970297,-266,-144,53,2025
177.971162,-256,-99,53,1089
177.972843,-248,-134,53,441
177.973029,-242,-193,53,81
177.973957,-242,-242,53,4
177.974963,-245,-276,53,16
177.975933,-250,-292,53,64
177.976928,-256,-315,53,81
177.977924,-263,-341,53,49
177.978906,-269,-307,53,4
177.979936,-270,-218,53,16
177.980877,-266,-156,53,100
177.981866,-261,-155,53,169
177.982875,-255,-172,53,169
177.983964,-246,-165,53,16
177.985004,-234,-143,53,121
177.985886,-221,-136,53,841
177.986873,-210,-165,53,2116
177.987873,-203,-178,53,3600
177.988834,-199,-170,53,4900
177.98984,-200,-169,53,4900
177.990854,-205,-187,53,3721
177.991827,-210,-230,53,2601
177.992839,-213,-264,53,1764
177.993821,-215,-284,53,961
177.994828,-215,-280,53,361
177.995798,-214,-271,53,49
177.996831,-214,-301,53,16
177.997789,-213,-334,53,100
177.998805,-215,-342,53,256
177.999784,-219,-301,53,361
178.000761,-224,-245,53,361
178.001767,-227,-230,53,289
178.002746,-230,-223,53,289
178.003765,-231,-193,53,256
178.004798,-233,-172,53,324
178.005764,-234,-170,53,400
178.00674,-233,-143,53,361
178.007713,-230,-113,53,289
178.008708,-227,-114,53,144
178.009695,-227,-157,53,64
178.010796,-228,-218,53,16
178.011674,-230,-265,53,9
178.012662,-230,-263,53,0
178.013689,-226,-202,53,25
178.014687,-218,-125,53,225
178.015675,-208,-77,53,676
178.016686,-199,-103,53,1156
178.017662,-191,-183,53,1521
178.018641,-186,-239,53,1681
178.019648,-183,-252,53,1936
178.020636,-183,-231,53,2025
178.021626,-181,-200,53,2401
178.022671,-179,-184,53,2601
178.023609,-178,-174,53,2304
178.02464,-180,-203,53,1444
178.025604,-186,-291,53,484
178.026579,-196,-337,53,9
178.027589,-206,-321,53,225
178.028567,-215,-303,53,841
178.029572,-222,-296,53,1521
178.030562,-225,-273,53,1764
178.031543,-223,-231,53,1764
178.032558,-220,-186,53,1681
178.033606,-219,-198,53,1681
178.034541,-227,-280,53,2209
178.035542,-238,-304,53,2704
178.036501,-247,-265,53,2601
178.037522,-248,-216,53,1764
178.038511,-244,-148,53,841
178.039515,-237,-113,53,225
178.040487,-233,-150,53,64
178.041506,-233,-211,53,100
178.042471,-237,-259,53,289
178.043476,-242,-282,53,529
178.044462,-248,-313,53,441
178.045525,-251,-356,53,169
178.046448,-254,-398,53,49
178.047413,-259,-414,53,121
178.048435,-262,-376,53,324
178.049431,-261,-259,53,576
178.050421,-255,-168,53,484
178.051429,-252,-158,53,361
178.052459,-251,-172,53,196
178.05339,-250,-168,53,64
178.054415,-246,-207,53,4
178.055412,-243,-254,53,64
178.056381,-243,-254,53,121
178.057371,-243,-229,53,256
178.058357,-247,-211,53,225
178.059359,-252,-221,53,81
178.060366,-257,-245,53,4
178.061346,-258,-232,53,36
178.062334,-255,-203,53,16
178.06334,-250,-185,53,0
178.064335,-243,-175,53,9
178.065315,-233,-156,53,100
178.066305,-221,-149,53,484
178.067291,-208,-155,53,1225
178.068284,-197,-165,53,2500
178.069327,-194,-198,53,3364
178.070297,-198,-241,53,3481
178.071325,-202,-240,53,3136
178.072288,-204,-207,53,2601
178.073279,-205,-200,53,2025
178.074264,-205,-208,53,1444
178.075254,-203,-209,53,900
178.076229,-201,-210,53,400
178.077219,-201,-221,53,49
178.078209,-201,-220,53,16
178.079236,-201,-223,53,49
178.084328,-201,-245,53,9
178.084335,-204,-280,53,4
178.084342,-208,-286,53,16
178.084349,-213,-289,53,64
178.084356,-220,-311,53,225
178.085201,-229,-335,53,676
178.086183,-237,-307,53,1296
178.087179,-241,-254,53,1600
178.088151,-245,-231,53,1936
178.089169,-245,-201,53,1936
178.090155,-242,-184,53,1681
178.091142,-243,-249,53,1521
178.092136,-248,-314,53,1600
178.093124,-252,-291,53,1521
178.09412,-254,-237,53,1156
178.095125,-255,-228,53,676
178.096151,-255,-222,53,324
178.097083,-254,-198,53,169
178.098078,-252,-176,53,49
178.099076,-251,-208,53,36
178.10009,-251,-247,53,81
178.101088,-251,-265,53,64
178.102058,-249,-252,53,1
178.103079,-245,-207,53,49
178.104052,-240,-208,53,196
178.105034,-236,-263,53,361
178.106031,-237,-315,53,324
178.107011,-240,-326,53,196
178.108005,-245,-324,53,49
178.109013,-251,-332,53,0
178.110025,-257,-299,53,36
178.111,-256,-223,53,25
178.111988,-247,-146,53,4
178.113002,-239,-129,53,36
178.113979,-235,-153,53,25
178.114974,-231,-155,53,25
178.115964,-228,-162,53,81
178.116961,-230,-221,53,100
178.117952,-233,-244,53,144
178.118966,-234,-234,53,289
178.11999,-233,-231,53,576
178.120937,-231,-219,53,625
178.121927,-229,-204,53,324
178.123008,-230,-237,53,81
178.123929,-235,-293,53,0
178.124894,-238,-330,53,49
178.125913,-240,-353,53,144
178.12695,-241,-357,53,121
178.12795,-242,-339,53,81
178.129005,-239,-277,53,25
178.129941,-234,-200,53,1
178.130943,-231,-164,53,0
178.131954,-232,-160,53,9
178.132845,-236,-200,53,36
178.133838,-240,-248,53,25
178.134831,-246,-265,53,64
178.135855,-250,-238,53,100
178.136825,-249,-205,53,64
178.137822,-247,-203,53,25
178.138849,-246,-220,53,49
178.139828,-247,-238,53,169
178.140782,-247,-226,53,256
178.14182,-247,-211,53,225
178.142774,-246,-215,53,100
178.143779,-242,-212,53,4
178.144743,-236,-213,53,100
178.145752,-232,-259,53,324
178.146816,-230,-333,53,361
178.147745,-232,-375,53,225
178.148731,-235,-335,53,121
178.149743,-237,-246,53,100
178.150734,-239,-195,53,64
178.151709,-242,-226,53,25
178.152714,-243,-217,53,9
178.153722,-241,-200,53,1
178.154686,-239,-227,53,9
178.155679,-241,-282,53,81
178.156673,-247,-323,53,289
178.157665,-253,-333,53,441
178.158752,-259,-327,53,576
178.159703,-259,-247,53,484
178.160659,-257,-181,53,324
178.161632,-254,-147,53,144
178.162642,-248,-109,53,25
178.163619,-244,-123,53,9
178.16461,-243,-199,53,16
178.165607,-242,-242,53,1
178.166633,-236,-207,53,121
178.167615,-226,-179,53,729
178.168608,-218,-176,53,1681
178.169637,-216,-192,53,1849
178.170589,-216,-208,53,1681
178.171639,-217,-235,53,1369
178.172585,-219,-266,53,841
178.173593,-222,-263,53,484
178.17464,-224,-269,53,361
178.175538,-223,-252,53,361
178.176538,-218,-217,53,324
178.17754,-211,-210,53,225
178.178518,-208,-250,53,100
178.179516,-208,-254,53,64
178.180508,-209,-205,53,49
178.181494,-210,-169,53,49
178.182485,-212,-143,53,49
178.183497,-212,-117,53,100
178.184469,-207,-104,53,289
178.185455,-202,-139,53,441
178.186496,-199,-153,53,361
178.187483,-198,-165,53,169
178.188501,-200,-217,53,64
178.189454,-202,-223,53,36
178.190457,-201,-197,53,64
178.191435,-200,-204,53,100
178.192424,-199,-239,53,169
178.193412,-200,-295,53,144
178.194407,-202,-312,53,25
178.195392,-205,-298,53,9
178.196386,-209,-296,53,100
178.197393,-212,-278,53,196
178.198367,-211,-241,53,121
178.199363,-208,-177,53,36
178.200376,-202,-102,53,1
178.201363,-199,-95,53,1
178.202349,-200,-164,53,1
178.203352,-204,-209,53,16
178.204358,-209,-198,53,49
178.205355,-211,-183,53,36
178.206312,-214,-200,53,25
178.207321,-216,-213,53,16
178.208302,-215,-198,53,16
178.20932,-212,-155,53,16
178.21031,-209,-137,53,49
178.211303,-205,-134,53,36
178.212287,-199,-109,53,1
178.213291,-189,-94,53,225
178.214276,-177,-70,53,1024
178.215285,-165,-68,53,2116
178.216257,-153,-45,53,3721
178.217267,-139,-17,53,5929
178.218261,-127,8,53,7744
178.219299,-120,-30,53,8464
178.220218,-119,-89,53,8100
178.221235,-120,-122,53,7225
178.22227,-118,-114,53,6561
178.223221,-112,-93,53,5929
178.224199,-106,-86,53,5041
178.225237,-101,-72,53,4096
178.226237,-93,-44,53,3600
178.227174,-86,-78,53,2809
178.228183,-84,-147,53,1849
178.229168,-85,-187,53,1225
178.23018,-87,-177,53,1024
178.231158,-88,-140,53,1024
178.232163,-90,-146,53,784
178.233143,-95,-195,53,289
178.234139,-101,-194,53,25
178.235159,-105,-158,53,16
178.236133,-110,-139,53,289
178.237132,-117,-149,53,961
178.238132,-123,-123,53,1521
178.239119,-127,-100,53,1764
178.240092,-128,-107,53,1681
178.241088,-127,-108,53,1521
178.24212,-128,-128,53,1444
178.243069,-131,-160,53,1296
178.244082,-136,-187,53,1225
178.24507,-140,-159,53,1225
178.246054,-144,-122,53,1156
178.247039,-145,-93,53,784
178.248037,-142,-88,53,361
178.249026,-139,-128,53,144
178.250027,-138,-159,53,100
178.251027,-140,-178,53,169
178.252032,-144,-218,53,256
178.253012,-147,-271,53,256
178.254036,-151,-256,53,225
178.25502,-152,-196,53,144
178.256004,-154,-168,53,100
178.256996,-154,-147,53,81
178.257994,-154,-120,53,144
178.25895,-155,-123,53,256
178.259961,-156,-136,53,324
178.260968,-157,-132,53,289
178.261957,-159,-150,53,225
178.262948,-161,-202,53,196
178.26398,-164,-252,53,169
178.264959,-171,-296,53,361
178.265939,-180,-314,53,676
178.266929,-192,-319,53,1444
178.267913,-203,-313,53,2401
178.268902,-212,-303,53,3249
178.269912,-219,-297,53,3969
178.270882,-224,-277,53,4489
178.271904,-225,-239,53,4356
178.272857,-221,-200,53,3600
178.273843,-218,-204,53,2916
178.274871,-219,-206,53,2304
178.275859,-220,-188,53,1600
178.27684,-221,-178,53,841
178.277848,-225,-198,53,484
178.278836,-232,-250,53,400
178.279821,-239,-281,53,400
178.280812,-247,-285,53,529
178.281822,-252,-260,53,729
178.282796,-254,-238,53,1089
178.283794,-253,-238,53,1225
178.284782,-251,-248,53,1024
178.285792,-247,-239,53,729
178.28677,-240,-184,53,361
178.287776,-230,-108,53,25
178.288767,-220,-106,53,144
178.289747,-213,-147,53,676
178.290739,-209,-204,53,1444
178.291831,-209,-230,53,1849
178.292732,-211,-243,53,1849
178.293733,-213,-239,53,1600
178.294704,-212,-204,53,1521
178.295717,-213,-194,53,1156
178.296731,-215,-228,53,625
178.297716,-219,-270,53,121
178.298697,-221,-293,53,1
178.299694,-223,-315,53,100
178.300674,-226,-357,53,289
178.301696,-233,-400,53,576
178.302705,-241,-400,53,900
178.303673,-248,-369,53,1225
178.304713,-253,-351,53,1681
178.305641,-258,-346,53,2025
178.306634,-265,-325,53,2500
178.307642,-274,-282,53,3025
178.308642,-281,-234,53,3600
178.309618,-284,-211,53,3721
178.310604,-283,-197,53,3249
178.311599,-281,-174,53,2304
178.312592,-277,-180,53,1296
178.313581,-276,-206,53,784
178.314574,-279,-265,53,676
178.315569,-286,-329,53,784
178.316574,-292,-362,53,729
178.31754,-295,-316,53,441
178.318562,-295,-301,53,196
178.319575,-294,-296,53,100
178.320548,-288,-243,53,25
178.321524,-278,-186,53,9
178.32256,-267,-188,53,100
178.323538,-259,-209,53,289
178.324503,-254,-243,53,625
178.3255,-249,-258,53,1369
178.326485,-242,-186,53,2500
178.327483,-234,-119,53,3721
178.328496,-230,-142,53,4225
178.32947,-231,-248,53,3969
178.330463,-237,-314,53,2601
178.331464,-243,-296,53,1225
178.332453,-246,-242,53,441
178.333437,-246,-189,53,169
178.33444,-239,-136,53,225
178.335417,-227,-91,53,484
178.336415,-212,-55,53,900
178.337431,-198,-44,53,1296
178.338444,-184,-18,53,2116
178.339414,-169,13,53,3844
178.340406,-156,14,53,6561
178.341397,-143,71,53,10000
178.342389,-124,187,53,14884
178.343385,-100,282,53,21316
178.344371,-73,297,53,27556
178.345368,-47,264,53,32400
178.34636,-24,267,53,35344
178.347374,-3,309,53,38025
178.348344,21,358,53,42025
178.34934,53,373,53,49284
178.350312,84,324,53,57600
178.351305,110,214,53,64009
178.35232,127,99,53,63001
178.353328,138,29,53,56644
178.354311,144,-21,53,47089
178.355309,144,-80,53,36481
178.356284,140,-131,53,26896
178.357278,135,-158,53,19044
178.358283,127,-175,53,11236
178.35926,116,-202,53,3969
178.360251,105,-215,53,441
178.361241,90,-217,53,400
178.362233,70,-225,53,3249
178.363242,46,-183,53,8464
178.364231,26,-111,53,13924
178.365237,9,-78,53,18225
178.366212,-8,-90,53,21904
178.367204,-30,-140,53,27225
178.36821,-59,-209,53,34596
178.369193,-90,-253,53,42436
178.37021,-117,-223,53,49284
178.371204,-138,-195,53,51984
178.372226,-155,-252,53,50625
178.373194,-174,-343,53,48400
178.374158,-192,-377,53,47524
178.375152,-207,-392,53,46656
178.376142,-221,-400,53,45369
178.377151,-233,-396,53,41209
178.378119,-242,-356,53,33489
178.379114,-248,-329,53,24964
178.380105,-255,-351,53,19044
178.381105,-262,-361,53,15376
178.382105,-265,-274,53,12100
178.383106,-264,-173,53,8100
178.384078,-266,-142,53,5476
178.385082,-270,-155,53,3969
178.386102,-275,-197,53,2916
178.387076,-280,-241,53,2209
178.388056,-283,-265,53,1681
178.389057,-283,-267,53,1225
178.390039,-284,-243,53,841
178.391046,-284,-179,53,484
178.392059,-279,-149,53,196
178.393016,-270,-171,53,36
178.393994,-261,-203,53,25
178.395016,-253,-237,53,289
178.396029,-244,-220,53,961
178.397297,-234,-181,54,2116
178.39814,-223,-140,54,3600
178.399016,-214,-151,54,4761
178.399995,-206,-187,54,6084
178.400974,-198,-213,54,7396
178.401977,-196,-220,54,6889
178.402953,-196,-177,54,5476
178.403955,-194,-113,54,4489
178.404941,-191,-95,54,3844
178.405937,-188,-131,54,3136
178.406906,-185,-169,54,2401
178.407925,-180,-176,54,1849
178.4089,-174,-149,54,1600
178.409915,-169,-133,54,1369
178.41089,-167,-151,54,961
178.411894,-168,-167,54,784
178.412879,-167,-147,54,841
178.413872,-163,-114,54,961
178.414866,-155,-92,54,1296
178.415854,-147,-55,54,1681
178.416858,-139,-23,54,2116
178.417861,-133,-18,54,2209
178.418856,-128,-46,54,2116
178.419846,-124,-104,54,2025
178.420837,-121,-169,54,2116
178.421832,-120,-188,54,2304
178.422815,-121,-207,54,2116
178.423795,-127,-227,54,1296
178.424805,-135,-261,54,400
178.425789,-143,-286,54,16
178.426774,-145,-214,54,36
178.42778,-145,-166,54,144
178.428775,-147,-190,54,361
178.429779,-151,-208,54,729
178.430754,-151,-162,54,900
178.431746,-148,-110,54,784
178.432748,-147,-125,54,676
178.433741,-150,-174,54,529
178.434733,-157,-219,54,484
178.435719,-167,-261,54,576
178.436728,-179,-266,54,1156
178.437706,-190,-245,54,2025
178.438701,-199,-223,54,2704
178.439692,-201,-146,54,2500
178.440679,-197,-84,54,2116
178.441738,-189,-30,54,1681
178.442675,-180,-25,54,1089
178.443659,-174,-108,54,576
178.444652,-171,-193,54,196
178.445652,-168,-225,54,1
178.44663,-168,-215,54,121
178.447633,-168,-177,54,484
178.448648,-166,-153,54,1089
178.449639,-164,-160,54,1369
178.45064,-165,-186,54,1024
178.451656,-170,-198,54,361
178.45262,-172,-166,54,64
178.453626,-170,-136,54,16
178.454611,-166,-144,54,25
178.45562,-161,-159,54,49
178.456626,-155,-155,54,169
178.457594,-151,-151,54,289
178.45862,-146,-132,54,400
178.459588,-144,-97,54,400
178.46055,-143,-76,54,484
178.461555,-146,-84,54,576
178.462558,-150,-105,54,484
178.46353,-154,-179,54,256
178.464521,-156,-247,54,100
178.465566,-159,-278,54,4
178.466551,-161,-255,54,36
178.467555,-163,-214,54,144
178.468518,-164,-173,54,324
178.469525,-162,-130,54,324
178.470502,-160,-133,54,289
178.471564,-158,-162,54,144
178.472483,-158,-166,54,64
178.473474,-159,-158,54,25
178.474468,-158,-122,54,4
178.475472,-153,-71,54,36
178.476456,-149,-74,54,144
178.477427,-146,-93,54,289
178.478445,-146,-130,54,324
178.479442,-151,-190,54,121
178.480428,-159,-235,54,1
178.481501,-166,-218,54,64
178.482497,-167,-140,54,81
178.483463,-164,-111,54,25
178.484484,-160,-159,54,4
178.485483,-156,-205,54,9
178.486388,-152,-174,54,9
178.487403,-146,-103,54,0
178.488356,-143,-111,54,9
178.489371,-145,-168,54,36
178.490438,-147,-177,54,144
178.491433,-145,-114,54,441
178.492376,-139,-44,54,784
178.493344,-133,-32,54,961
178.494348,-130,-70,54,900
178.495345,-133,-127,54,529
178.496329,-138,-172,54,196
178.497369,-140,-145,54,36
178.498308,-139,-95,54,16
178.499321,-134,-105,54,121
178.500286,-131,-172,54,256
178.501284,-132,-234,54,169
178.502279,-136,-220,54,9
178.503307,-137,-140,54,16
178.504313,-132,-55,54,4
178.505295,-123,-30,54,100
178.506246,-117,-47,54,441
178.507275,-116,-77,54,576
178.508245,-115,-102,54,576
178.509308,-111,-86,54,529
178.510256,-106,-72,54,625
178.511232,-105,-98,54,729
178.512404,-109,-114,54,729
178.513316,-112,-108,54,625
178.514311,-115,-128,54,289
178.515328,-116,-148,54,49
178.516356,-115,-153,54,4
178.517328,-117,-183,54,1
178.518238,-124,-222,54,81
178.519156,-129,-208,54,324
178.520167,-129,-165,54,529
178.521138,-124,-145,54,361
178.522127,-120,-136,54,121
178.523139,-120,-134,54,64
178.524119,-121,-93,54,36
178.525114,-123,-58,54,49
178.526113,-125,-94,54,100
178.527118,-128,-130,54,121
178.528136,-130,-144,54,36
178.52909,-133,-156,54,16
178.530091,-137,-148,54,64
178.531086,-137,-84,54,169
178.532073,-132,-13,54,144
178.533143,-128,-47,54,64
178.534063,-129,-142,54,64
178.535113,-132,-196,54,81
178.536064,-133,-191,54,64
178.537058,-132,-157,54,16
178.53811,-127,-117,54,9
178.539059,-120,-74,54,169
178.54005,-116,-72,54,441
178.541027,-114,-121,54,529
178.542038,-114,-129,54,324
178.543077,-112,-90,54,256
178.544025,-110,-54,54,361
178.545008,-109,-39,54,529
178.545984,-107,-55,54,676
178.546976,-105,-90,54,729
178.547971,-104,-118,54,529
178.548968,-104,-165,54,256
178.549965,-106,-176,54,100
178.550953,-108,-134,54,36
178.551945,-113,-118,54,1
178.552946,-116,-98,54,16
178.553932,-111,-55,54,1
178.554944,-103,-20,54,36
178.555948,-93,-1,54,196
178.556942,-86,-9,54,361
178.557897,-81,-29,54,529
178.558922,-80,-45,54,576
178.559907,-80,-65,54,676
178.560891,-78,-82,54,900
178.561892,-75,-72,54,1444
178.562868,-73,-48,54,1849
178.563974,-73,-52,54,1444
178.564882,-73,-52,54,900
178.565854,-74,-78,54,361
178.566852,-77,-149,54,81
178.567853,-79,-157,54,4
178.568842,-74,-56,54,36
178.569859,-60,92,54,400
178.570885,-46,160,54,1024
178.571839,-34,121,54,1681
178.572814,-26,55,54,2209
178.573799,-24,-5,54,2401
178.574815,-24,-21,54,2401
178.575769,-23,20,54,2601
178.576769,-20,41,54,3249
178.57778,-18,23,54,3721
178.578766,-18,-46,54,3136
178.579765,-19,-103,54,1681
178.580753,-20,-97,54,676
178.581744,-20,-58,54,196
178.582741,-17,-6,54,81
178.583727,-11,71,54,169
178.584739,-3,120,54,441
178.585735,6,119,54,841
178.586698,18,92,54,1444
178.587711,28,42,54,2116
178.588725,28,-67,54,2116
178.589722,16,-143,54,1225
178.590995,1,-131,54,441
178.592414,-8,-94,54,144
178.592714,-15,-73,54,4
178.593716,-17,-39,54,36
178.594697,-16,-19,54,169
178.595647,-17,0,54,529
178.59665,-19,11,54,1369
178.597653,-18,36,54,2116
178.598618,-13,58,54,1681
178.599612,-6,43,54,484
178.600605,0,32,54,1
178.601606,3,7,54,121
178.602606,0,-68,54,225
178.603625,-8,-100,54,81
178.604604,-18,-80,54,4
178.605596,-26,-46,54,81
178.606572,-32,-27,54,169
178.607602,-36,-38,54,324
178.608584,-34,-36,54,441
178.60955,-27,7,54,441
178.610546,-20,11,54,400
178.611584,-17,-35,54,400
178.612564,-16,-62,54,256
178.613534,-17,-44,54,81
178.614511,-16,-1,54,4
178.615522,-14,28,54,144
178.616529,-12,52,54,400
178.6175,-10,71,54,676
178.618485,-8,97,54,676
178.619496,-5,112,54,484
178.620474,-2,88,54,324
178.621463,0,78,54,289
178.622463,10,115,54,676
178.623445,21,124,54,1444
178.624453,29,78,54,2025
178.625456,33,45,54,2209
178.626438,36,20,54,2304
178.627469,38,8,54,2304
178.628448,39,-14,54,2209
178.629421,37,-33,54,1764
178.6304,36,-5,54,1444
178.631407,38,0,54,1444
178.632395,41,6,54,961
178.633386,45,26,54,576
178.634392,47,53,54,324
178.635387,50,82,54,289
178.636435,53,104,54,289
178.637378,55,107,54,289
178.638369,56,119,54,289
178.639359,56,110,54,361
178.640329,56,102,54,400
178.641347,58,118,54,400
178.642358,60,148,54,361
178.643316,61,149,54,256
178.644303,64,132,54,289
178.645295,67,106,54,289
178.646285,70,86,54,289
178.647308,74,75,54,361
178.648298,77,57,54,441
178.64929,79,9,54,529
178.650285,77,-44,54,441
178.651294,72,-102,54,196
178.652264,65,-133,54,25
178.653319,58,-123,54,9
178.654248,49,-116,54,225
178.655227,41,-92,54,676
178.656247,32,-66,54,1444
178.657219,23,-72,54,2601
178.658213,15,-38,54,3844
178.659215,11,25,54,4624
178.660199,7,19,54,4900
178.661203,0,-23,54,5184
178.662184,-10,-70,54,5625
178.663175,-22,-87,54,6400
178.664167,-31,-46,54,6400
178.665192,-37,-11,54,6084
178.666172,-42,-24,54,5476
178.667175,-49,-55,54,5184
178.668155,-56,-94,54,5041
178.669144,-63,-131,54,5476
178.670136,-68,-150,54,5625
178.671209,-70,-123,54,4900
178.672129,-69,-125,54,3481
178.673159,-70,-150,54,2304
178.674104,-72,-152,54,1681
178.675124,-75,-153,54,1444
178.676096,-80,-155,54,1444
178.677098,-84,-154,54,1225
178.678077,-90,-159,54,1156
178.679078,-99,-164,54,1296
178.680076,-107,-126,54,1521
178.681075,-109,-70,54,1521
178.682049,-109,-68,54,1600
178.683045,-110,-119,54,1600
178.684038,-117,-175,54,2025
178.685041,-126,-191,54,2601
178.686007,-133,-168,54,2809
178.687047,-137,-138,54,2809
178.688011,-139,-128,54,2401
178.689027,-140,-146,54,1681
178.69003,-140,-155,54,1089
178.690987,-143,-182,54,1156
178.691988,-147,-216,54,1444
178.692983,-150,-207,54,1600
178.693949,-151,-173,54,1156
178.694954,-152,-173,54,676
178.695964,-154,-184,54,441
178.696963,-154,-148,54,289
178.697954,-151,-115,54,144
178.698941,-150,-135,54,100
178.69996,-151,-143,54,121
178.700933,-154,-145,54,121
178.701926,-160,-173,54,169
178.70292,-164,-205,54,196
178.703903,-167,-237,54,256
178.704932,-170,-258,54,324
178.705906,-175,-259,54,441
178.706882,-180,-232,54,676
178.707898,-181,-160,54,900
178.708989,-180,-121,54,900
178.709862,-180,-160,54,841
178.710872,-183,-231,54,841
178.711861,-187,-301,54,729
178.712839,-194,-343,54,900
178.71384,-202,-330,54,1225
178.714828,-207,-277,54,1369
178.715868,-208,-209,54,1089
178.716839,-209,-167,54,841
178.71782,-212,-177,54,961
178.71883,-216,-218,54,1296
178.719842,-222,-260,54,1764
178.720805,-228,-252,54,2025
178.72178,-228,-188,54,1681
178.722772,-225,-140,54,961
178.723773,-221,-152,54,361
178.724756,-217,-192,54,100
178.725741,-216,-239,54,64
178.726759,-219,-274,54,100
178.727735,-225,-289,54,169
178.728763,-231,-241,54,225
178.729724,-234,-216,54,144
178.730713,-233,-218,54,25
178.731702,-227,-175,54,1
178.732709,-218,-174,54,49
178.733721,-213,-214,54,64
178.734695,-211,-246,54,36
178.735678,-215,-293,54,1
178.736681,-222,-311,54,9
178.737706,-230,-319,54,25
178.738669,-233,-289,54,4
178.739651,-231,-226,54,9
178.740647,-229,-200,54,16
178.741679,-228,-171,54,1
178.742665,-231,-191,54,169
178.743661,-238,-297,54,625
178.74462,-248,-395,54,1369
178.745626,-257,-415,54,1764
178.746611,-264,-414,54,1764
178.747596,-267,-348,54,1369
178.748579,-267,-243,54,1156
178.749584,-265,-177,54,1156
178.750588,-263,-173,54,1156
178.751564,-263,-189,54,1225
178.75256,-264,-185,54,1089
178.753535,-263,-202,54,625
178.754555,-262,-219,54,196
178.755545,-258,-213,54,1
178.756553,-250,-163,54,196
178.757537,-243,-171,54,576
178.758564,-238,-193,54,841
178.759523,-236,-183,54,841
178.760503,-236,-191,54,729
178.76151,-239,-233,54,576
178.762498,-242,-250,54,484
178.763479,-240,-255,54,529
178.764469,-233,-267,54,841
178.765469,-227,-282,54,961
178.766471,-220,-280,54,900
178.767433,-215,-257,54,784
178.768473,-215,-235,54,529
178.769459,-220,-279,54,256
178.770453,-227,-307,54,81
178.771444,-229,-233,54,100
178.77242,-227,-142,54,225
178.773417,-225,-157,54,225
178.774419,-226,-250,54,49
178.775408,-231,-312,54,16
178.77641,-238,-312,54,324
178.777398,-244,-282,54,841
178.778388,-247,-250,54,1024
178.779355,-248,-210,54,784
178.780388,-248,-178,54,441
178.781373,-245,-187,54,256
178.782358,-245,-236,54,324
178.783368,-244,-253,54,361
178.784371,-243,-232,54,289
178.78535,-240,-225,54,81
178.786336,-236,-210,54,4
178.787332,-232,-174,54,144
178.788308,-228,-155,54,361
178.789335,-222,-159,54,676
178.790304,-215,-162,54,1089
178.791316,-211,-158,54,1156
178.792332,-213,-170,54,1024
178.793292,-214,-190,54,900
178.794271,-211,-194,54,1024
178.795278,-207,-217,54,1089
178.79627,-205,-273,54,961
178.797262,-206,-303,54,676
178.798257,-208,-289,54,400
178.799229,-211,-276,54,121
178.800241,-216,-272,54,1
178.801227,-221,-293,54,100
178.802247,-226,-337,54,169
178.803233,-229,-314,54,225
178.804252,-230,-240,54,361
178.80519,-229,-223,54,484
178.806194,-232,-259,54,729
178.807177,-238,-296,54,1024
178.80817,-246,-317,54,1444
178.809185,-254,-307,54,1849
178.810166,-258,-258,54,1764
178.811142,-260,-192,54,1521
178.812154,-259,-155,54,1089
178.813143,-257,-150,54,784
178.814125,-256,-177,54,676
178.815139,-257,-229,54,784
178.816121,-257,-263,54,625
178.817119,-255,-273,54,289
178.818114,-254,-270,54,64
178.819103,-255,-288,54,1
178.820113,-258,-335,54,0
178.821105,-261,-365,54,1
178.822103,-263,-374,54,16
178.823081,-265,-349,54,64
178.824079,-268,-292,54,144
178.825056,-269,-245,54,144
178.826052,-268,-238,54,121
178.827047,-266,-266,54,121
178.828019,-263,-253,54,81
178.829021,-258,-211,54,9
178.830015,-255,-192,54,9
178.831009,-256,-222,54,25
178.832029,-259,-210,54,16
178.833007,-261,-184,54,16
178.834004,-259,-138,54,81
178.835009,-253,-113,54,256
178.835993,-248,-157,54,400
178.836972,-245,-208,54,441
178.837984,-243,-248,54,400
178.838972,-244,-302,54,196
178.839975,-243,-321,54,144
178.840942,-239,-285,54,289
178.841956,-234,-258,54,625
178.842932,-229,-263,54,1024
178.843931,-227,-240,54,1024
178.844944,-225,-219,54,784
178.84592,-223,-192,54,625
178.846892,-218,-163,54,729
178.847881,-214,-167,54,841
178.84891,-214,-211,54,900
178.849932,-217,-251,54,676
178.850895,-219,-266,54,400
178.851878,-222,-271,54,144
178.852877,-226,-270,54,9
178.853877,-231,-236,54,16
178.854914,-236,-207,54,121
178.855846,-239,-219,54,256
178.856841,-239,-216,54,441
178.857833,-237,-199,54,529
178.858857,-231,-179,54,289
178.859832,-224,-183,54,49
178.860815,-222,-253,54,9
178.861811,-226,-336,54,16
178.862814,-230,-348,54,16
178.863805,-233,-284,54,4
178.864782,-232,-217,54,16
178.865797,-231,-164,54,64
178.866773,-231,-163,54,64
178.867757,-234,-236,54,9
178.868809,-241,-350,54,100
178.869773,-249,-410,54,625
178.870752,-256,-396,54,1156
178.871742,-258,-319,54,1024
178.872791,-256,-224,54,676
178.873744,-252,-147,54,361
178.874719,-247,-116,54,225
178.875695,-242,-119,54,121
178.876709,-238,-133,54,49
178.877724,-237,-180,54,9
178.878759,-242,-285,54,1
178.879689,-250,-348,54,1
178.880692,-253,-307,54,9
178.881676,-250,-269,54,64
178.88268,-247,-295,54,81
178.883669,-250,-333,54,4
178.884683,-254,-307,54,49
178.885992,-255,-191,54,169
178.886807,-253,-108,54,225
178.888796,-247,-122,54,100
178.888833,-238,-178,54,16
178.889671,-229,-229,54,441
178.890616,-222,-241,54,961
178.891621,-218,-250,54,1024
178.892608,-221,-281,54,676
178.893604,-227,-260,54,529
178.894582,-233,-240,54,441
178.895575,-240,-259,54,225
178.896579,-245,-241,54,64
178.897582,-247,-222,54,0
178.898578,-243,-205,54,25
178.899586,-236,-209,54,49
178.900587,-232,-229,54,100
178.901567,-229,-191,54,121
178.902547,-221,-135,54,0
178.903547,-210,-118,54,289
178.904539,-201,-139,54,1024
178.905535,-200,-167,54,1600
178.906535,-202,-152,54,1849
178.907557,-204,-144,54,1849
178.908486,-201,-121,54,1764
178.909479,-195,-122,54,1681
178.910536,-191,-150,54,1681
178.911555,-190,-228,54,1521
178.9125,-190,-293,54,961
178.913483,-195,-354,54,225
178.914507,-203,-407,54,4
178.915435,-211,-410,54,121
178.916487,-216,-341,54,196
178.917481,-219,-288,54,225
178.918414,-224,-305,54,529
178.91945,-229,-310,54,1156
178.920442,-231,-267,54,1600
178.921425,-234,-240,54,1936
178.922402,-239,-244,54,2401
178.923404,-245,-239,54,2500
178.924393,-250,-234,54,2209
178.925396,-253,-235,54,1764
178.926411,-258,-238,54,1764
178.927424,-263,-258,54,1936
178.928374,-272,-306,54,2304
178.929396,-283,-325,54,2916
178.930356,-289,-283,54,3364
178.93137,-289,-226,54,3025
178.932342,-286,-231,54,2209
178.933362,-283,-295,54,1444
178.934326,-278,-296,54,784
178.935321,-270,-265,54,289
178.936308,-265,-238,54,49
178.937299,-264,-260,54,1
178.938289,-264,-309,54,64
178.939316,-266,-341,54,289
178.940301,-269,-333,54,400
178.941269,-272,-301,54,289
178.942252,-273,-269,54,169
178.943284,-274,-252,54,81
178.944245,-276,-277,54,4
178.945289,-279,-299,54,81
178.946234,-280,-265,54,225
178.947249,-279,-223,54,225
178.948238,-271,-154,54,49
178.949253,-260,-106,54,36
178.950349,-251,-93,54,324
178.951209,-244,-97,54,784
178.952193,-238,-110,54,1225
178.953181,-229,-115,54,2025
178.954199,-221,-137,54,3025
178.955159,-217,-181,54,3844
178.956157,-215,-195,54,4225
178.957173,-212,-202,54,4489
178.958174,-209,-259,54,3844
178.959175,-210,-349,54,2500
178.960145,-212,-369,54,1521
178.961148,-212,-305,54,1024
178.962137,-209,-217,54,841
178.963144,-206,-178,54,529
178.964156,-200,-170,54,441
178.965142,-195,-194,54,484
178.966089,-194,-237,54,441
178.967078,-196,-274,54,256
178.968101,-202,-279,54,49
178.969112,-210,-261,54,0
178.970121,-217,-234,54,25
178.971087,-222,-202,54,100
178.972059,-226,-182,54,289
178.973105,-230,-199,54,576
178.974042,-236,-249,54,1296
178.975038,-241,-288,54,2116
178.976059,-247,-306,54,2809
178.977053,-252,-304,54,3136
178.978062,-254,-302,54,2704
178.979033,-253,-320,54,1849
178.980022,-251,-332,54,1156
178.982188,-251,-312,54,841
178.982221,-254,-267,54,784
178.984695,-256,-226,54,676
178.984754,-258,-207,54,484
178.98501,-260,-231,54,361
178.985978,-261,-260,54,196
178.986964,-260,-253,54,64
178.987947,-259,-262,54,25
178.988995,-261,-298,54,64
178.989935,-263,-276,54,144
178.990946,-263,-200,54,144
178.991938,-263,-182,54,81
178.992928,-263,-214,54,49
178.993957,-263,-244,54,25
178.99492,-261,-250,54,1
178.996035,-258,-245,54,9
178.99755,-254,-221,54,36
178.999216,-250,-220,54,81
178.999309,-246,-235,54,225
178.999876,-241,-228,54,484
179.00088,-238,-264,54,625
179.001851,-240,-305,54,529
179.002831,-243,-292,54,400
179.003838,-246,-262,54,289
179.004819,-246,-235,54,225
179.005824,-243,-199,54,225
179.006808,-240,-182,54,196
179.007818,-236,-194,54,196
179.00882,-233,-222,54,169
179.009778,-231,-246,54,100
179.010782,-235,-282,54,9
179.011796,-242,-311,54,4
179.012778,-246,-309,54,9
179.01378,-249,-294,54,9
179.014752,-250,-274,54,16
179.015752,-249,-222,54,36
179.016727,-247,-175,54,49
179.017751,-245,-186,54,81
179.018721,-245,-238,54,144
179.019714,-247,-276,54,256
179.020872,-248,-281,54,169
179.021731,-246,-261,54,16
179.022728,-243,-232,54,9
179.023693,-241,-222,54,64
179.024695,-241,-232,54,81
179.025716,-245,-271,54,16
179.026673,-251,-302,54,16
179.027669,-254,-264,54,81
179.028644,-253,-194,54,64
179.029634,-248,-147,54,1
179.030663,-239,-117,54,81
179.03164,-232,-153,54,196
179.032629,-228,-238,54,225
179.033647,-228,-294,54,169
179.034608,-229,-303,54,144
179.035613,-232,-265,54,169
179.036621,-234,-217,54,289
179.037601,-234,-186,54,400
179.038601,-233,-216,54,400
179.03962,-233,-277,54,225
179.040604,-234,-306,54,25
179.041608,-236,-294,54,16
179.042562,-238,-286,54,100
179.043572,-243,-317,54,225
179.04454,-248,-337,54,361
179.045575,-249,-283,54,289
179.046542,-245,-217,54,121
179.047567,-240,-175,54,36
179.048551,-240,-189,54,49
179.049541,-244,-239,54,121
179.050512,-252,-264,54,324
179.051634,-257,-258,54,441
179.052481,-259,-268,54,441
179.053495,-257,-254,54,196
179.054487,-254,-244,54,36
179.055487,-254,-268,54,25
179.056479,-257,-278,54,144
179.057476,-260,-258,54,400
179.058461,-261,-219,54,441
179.059449,-256,-186,54,144
179.06044,-250,-192,54,4
179.061424,-247,-235,54,100
179.062418,-246,-252,54,169
179.063419,-242,-246,54,225
179.064402,-239,-277,54,225
179.065404,-242,-340,54,144
179.066409,-249,-352,54,64
179.067378,-255,-302,54,25
179.068363,-257,-219,54,16
179.06948,-253,-159,54,9
179.070369,-249,-186,54,1
179.071375,-247,-234,54,0
179.072485,-246,-236,54,0
179.073363,-245,-243,54,9
179.074366,-246,-267,54,49
179.075314,-245,-245,54,9
179.076326,-241,-190,54,64
179.07738,-238,-198,54,289
179.078336,-239,-245,54,324
179.079327,-244,-278,54,81
179.080322,-248,-268,54,1
179.081328,-249,-255,54,4
179.082294,-250,-286,54,16
179.083285,-253,-297,54,64
179.084286,-253,-274,54,49
179.085316,-248,-250,54,9
179.086263,-244,-267,54,9
179.087296,-244,-295,54,36
179.088256,-246,-274,54,49
179.089252,-251,-259,54,49
179.09024,-254,-239,54,36
179.091259,-253,-222,54,16
179.092219,-254,-244,54,16
179.093222,-256,-278,54,9
179.094213,-257,-288,54,16
179.095188,-259,-288,54,121
179.096246,-264,-288,54,400
179.097176,-268,-284,54,576
179.098186,-271,-300,54,625
179.099162,-274,-336,54,529
179.100264,-277,-341,54,529
179.101158,-280,-315,54,729
179.10215,-279,-263,54,625
179.103184,-278,-270,54,484
179.104165,-280,-328,54,529
179.10512,-284,-318,54,625
179.106141,-284,-268,54,400
179.107113,-284,-287,54,256
179.10812,-285,-298,54,196
179.109108,-281,-189,54,49
179.110108,-273,-71,54,16
179.111197,-265,-59,54,225
179.112083,-260,-141,54,361
179.113073,-257,-229,54,441
179.114067,-257,-290,54,529
179.115065,-258,-314,54,676
179.116051,-258,-270,54,676
179.117093,-254,-207,54,900
179.117999,-249,-198,54,1296
179.119044,-242,-205,54,1521
179.120055,-236,-216,54,1369
179.121029,-231,-228,54,1156
179.122038,-230,-229,54,900
179.123028,-229,-247,54,784
179.124042,-227,-296,54,900
179.125038,-227,-327,54,961
179.12598,-231,-332,54,729
179.126973,-232,-317,54,484
179.127967,-232,-295,54,289
179.128969,-237,-285,54,25
179.129967,-245,-234,54,81
179.130956,-250,-152,54,361
179.131967,-248,-115,54,324
179.132966,-244,-138,54,225
179.133947,-240,-207,54,169
179.134925,-237,-268,54,100
179.135917,-237,-272,54,36
179.136909,-239,-234,54,49
179.137909,-239,-197,54,49
179.138893,-237,-161,54,0
179.139885,-234,-173,54,121
179.140902,-232,-188,54,324
179.141877,-231,-201,54,289
179.142869,-231,-239,54,169
179.143863,-229,-269,54,121
179.144856,-225,-240,54,144
179.145852,-220,-226,54,289
179.146852,-217,-259,54,484
179.147827,-217,-299,54,484
179.148819,-218,-307,54,361
179.149828,-221,-294,54,169
179.150798,-230,-326,54,4
179.151815,-243,-390,54,144
179.152782,-255,-374,54,576
179.153796,-260,-303,54,961
179.154778,-260,-265,54,1225
179.155786,-259,-249,54,1521
179.156769,-258,-214,54,1681
179.157763,-256,-168,54,1521
179.15876,-255,-138,54,1369
179.159752,-254,-148,54,1089
179.16074,-254,-193,54,576
179.161745,-256,-231,54,169
179.162731,-256,-243,54,1
179.163731,-254,-239,54,36
179.164712,-254,-242,54,36
179.16571,-254,-215,54,25
179.16669,-248,-133,54,100
179.167708,-236,-65,54,400
179.16868,-226,-101,54,841
179.169733,-220,-187,54,1156
179.170663,-215,-216,54,1521
179.171663,-208,-252,54,2304
179.172663,-205,-312,54,2601
179.17364,-208,-362,54,2116
179.174662,-212,-354,54,1764
179.175664,-215,-300,54,1521
179.176638,-216,-247,54,1024
179.177631,-218,-195,54,324
179.178621,-220,-180,54,36
179.179608,-222,-186,54,4
179.180594,-222,-191,54,49
179.181597,-219,-186,54,121
179.182594,-217,-200,54,144
179.183622,-215,-191,54,49
179.184582,-213,-209,54,1
179.185571,-213,-217,54,4
179.186581,-217,-201,54,1
179.187575,-223,-192,54,25
179.188557,-229,-219,54,81
179.189568,-231,-228,54,81
179.19055,-231,-209,54,81
179.19154,-229,-224,54,100
179.192529,-227,-276,54,100
179.193523,-225,-314,54,100
179.194513,-223,-314,54,100
179.195495,-222,-275,54,81
179.196496,-224,-287,54,49
179.197492,-229,-306,54,36
179.198496,-236,-310,54,49
179.199477,-240,-268,54,81
179.200476,-241,-211,54,100
179.201464,-241,-189,54,144
179.202468,-241,-197,54,196
179.203473,-242,-221,54,289
179.204446,-244,-248,54,441
179.205442,-248,-287,54,676
179.206429,-255,-336,54,961
179.207399,-263,-359,54,1156
179.208434,-267,-297,54,961
179.209413,-267,-228,54,729
179.210386,-266,-198,54,625
179.211411,-264,-179,54,529
179.212403,-259,-167,54,324
179.213378,-253,-207,54,121
179.214361,-250,-252,54,36
179.215356,-248,-241,54,0
179.216362,-246,-234,54,81
179.217396,-243,-241,54,400
179.218365,-240,-260,54,729
179.219367,-238,-227,54,841
179.220327,-235,-154,54,961
179.221332,-233,-137,54,961
179.222325,-232,-189,54,729
179.223315,-233,-243,54,400
179.224359,-234,-263,54,256
179.225312,-232,-243,54,256
179.226327,-226,-225,54,400
179.227295,-223,-286,54,400
179.228275,-229,-419,54,121
179.229285,-241,-471,54,9
179.230275,-250,-389,54,225
179.231266,-254,-253,54,441
179.232258,-254,-167,54,484
179.23324,-251,-148,54,324
179.23424,-247,-160,54,169
179.235257,-243,-173,54,121
179.236255,-241,-190,54,225
179.237222,-239,-202,54,256
179.238222,-236,-202,54,49
179.239236,-235,-215,54,36
179.240195,-241,-257,54,81
179.241199,-247,-259,54,49
179.242197,-248,-212,54,36
179.243188,-246,-197,54,25
179.244171,-243,-210,54,16
179.245152,-242,-233,54,1
179.246159,-244,-256,54,9
179.247183,-243,-267,54,16
179.248136,-234,-247,54,4
179.249135,-221,-196,54,196
179.250131,-208,-142,54,1089
179.251148,-200,-95,54,2209
179.2521,-196,-85,54,2704
179.253155,-195,-119,54,2601
179.254108,-195,-167,54,2304
179.25512,-199,-249,54,1849
179.256092,-204,-294,54,1600
179.257091,-208,-269,54,1225
179.258076,-208,-210,54,676
179.259055,-204,-142,54,289
179.260049,-198,-134,54,100
179.261041,-194,-173,54,36
179.262039,-193,-200,54,9
179.263025,-194,-207,54,1
179.264031,-194,-213,54,1
179.265013,-192,-199,54,49
179.266021,-190,-204,54,196
179.26701,-187,-215,54,441
179.268016,-188,-260,54,400
179.268989,-193,-305,54,121
179.269983,-203,-342,54,25
179.270984,-216,-346,54,484
179.271979,-226,-301,54,1089
179.272975,-233,-245,54,1521
179.273959,-236,-222,54,1764
179.274944,-234,-226,54,1764
179.275935,-230,-211,54,1600
179.276949,-226,-189,54,1521
179.277939,-224,-172,54,1296
179.278932,-223,-114,54,900
179.279932,-220,-85,54,289
179.280914,-218,-124,54,4
179.281915,-216,-159,54,100
179.282911,-213,-144,54,400
179.283883,-208,-118,54,784
179.284885,-204,-120,54,900
179.285885,-199,-104,54,961
179.286931,-193,-91,54,1089
179.287845,-186,-127,54,1444
179.288861,-180,-172,54,1849
179.28987,-173,-210,54,2209
179.290857,-166,-212,54,2704
179.291888,-160,-182,54,3136
179.292834,-156,-150,54,3249
179.293814,-151,-139,54,3249
179.294895,-147,-146,54,3249
179.295816,-147,-207,54,2704
179.2968,-153,-310,54,1600
179.297779,-162,-339,54,576
179.298808,-171,-294,54,81
179.299792,-176,-199,54,9
179.300783,-177,-138,54,121
179.30177,-177,-155,54,289
179.302763,-178,-172,54,484
179.303754,-180,-146,54,841
179.304732,-178,-82,54,961
179.30574,-172,3,54,625
179.306719,-166,33,54,169
179.307725,-159,9,54,9
179.308769,-153,-46,54,324
179.309721,-146,-75,54,900
179.310699,-142,-127,54,1225
179.311692,-142,-186,54,1225
179.3127,-145,-206,54,1089
179.313678,-147,-186,54,1089
179.314675,-146,-114,54,1024
179.315657,-138,-51,54,1156
179.316658,-123,-11,54,1849
179.317651,-106,0,54,2809
179.318696,-93,-32,54,3600
179.319667,-88,-104,54,3364
179.320631,-90,-174,54,2704
179.321624,-93,-218,54,2401
179.322615,-96,-222,54,2401
179.323657,-99,-207,54,2304
179.324608,-103,-171,54,1849
179.32559,-110,-124,54,784
179.326581,-115,-80,54,64
179.327593,-120,-81,54,196
179.328561,-122,-98,54,841
179.329541,-125,-122,54,1369
179.330549,-125,-132,54,1225
179.331531,-122,-129,54,841
179.332549,-118,-128,54,484
179.33355,-116,-133,54,289
179.334531,-117,-149,54,196
179.335535,-122,-150,54,144
179.336529,-130,-156,54,225
179.337536,-138,-175,54,324
179.338494,-147,-197,54,625
179.339503,-151,-197,54,676
179.34048,-152,-182,54,729
179.341489,-149,-163,54,729
179.342466,-144,-134,54,676
179.34345,-140,-120,54,576
179.344451,-138,-125,54,441
179.345476,-139,-152,54,289
179.346445,-143,-161,54,169
179.347447,-147,-158,54,81
179.34843,-152,-188,54,25
179.349424,-157,-233,54,36
179.35043,-163,-240,54,121
179.351406,-167,-222,54,324
179.352409,-169,-167,54,625
179.353412,-169,-127,54,841
179.354397,-169,-149,54,961
179.355395,-172,-204,54,1089
179.356388,-175,-227,54,1024
179.357375,-177,-210,54,900
179.358355,-176,-182,54,576
179.359347,-174,-146,54,289
179.360362,-170,-121,54,49
179.361341,-171,-165,54,16
179.362328,-176,-249,54,49
179.363302,-183,-262,54,196
179.364311,-188,-221,54,361
179.365296,-191,-207,54,361
179.36632,-194,-221,54,361
179.367307,-197,-223,54,400
179.368301,-198,-211,54,484
179.369301,-197,-205,54,529
179.370284,-196,-215,54,676
179.371315,-197,-242,54,676
179.372247,-203,-288,54,729
179.373269,-212,-309,54,841
179.374245,-220,-302,54,1024
179.375282,-224,-295,54,1089
179.376245,-228,-309,54,1156
179.377229,-234,-331,54,1369
179.378239,-241,-324,54,1849
179.379225,-248,-280,54,2601
179.380215,-254,-245,54,3364
179.381224,-258,-243,54,3721
179.382193,-258,-256,54,3025
179.383185,-259,-264,54,2209
179.384178,-259,-238,54,1521
179.385172,-259,-196,54,1225
179.386166,-256,-161,54,784
179.387162,-253,-174,54,361
179.388138,-254,-229,54,169
179.389156,-258,-275,54,100
179.390142,-262,-296,54,64
179.391118,-265,-301,54,49
179.392159,-264,-274,54,36
179.393106,-262,-260,54,9
179.394126,-260,-271,54,1
179.395105,-260,-288,54,1
179.396089,-259,-294,54,9
179.39708,-258,-304,54,25
179.39807,-259,-353,54,25
179.399083,-265,-388,54,49
179.400078,-269,-340,54,49
179.401056,-271,-286,54,36
179.402204,-271,-243,54,49
179.403059,-268,-201,54,36
179.404047,-264,-165,54,16
179.405028,-262,-164,54,4
179.406031,-264,-198,54,25
179.407007,-268,-250,54,100
179.40801,-271,-280,54,144
179.409079,-270,-258,54,25
179.410001,-266,-215,54,9
179.410998,-260,-192,54,121
179.411989,-257,-201,54,196
179.412964,-255,-238,54,169
179.413968,-255,-266,54,81
179.414945,-254,-273,54,64
179.415938,-253,-267,54,121
179.416927,-250,-251,54,324
179.417957,-244,-221,54,729
179.418964,-234,-185,54,1296
179.419927,-227,-197,54,1521
179.420898,-223,-216,54,1369
179.421891,-221,-196,54,1296
179.422909,-218,-145,54,1369
179.423916,-214,-87,54,1681
179.424918,-207,-23,54,2209
179.425884,-198,-14,54,3025
179.42687,-188,-51,54,3844
179.427873,-176,-39,54,4624
179.428868,-163,-4,54,5041
179.429847,-150,41,54,5929
179.430841,-136,92,54,7569
179.431854,-120,113,54,10201
179.432889,-103,119,54,13225
179.433849,-84,109,54,16900
179.434891,-63,136,54,20736
179.435823,-40,207,54,24964
179.436817,-14,269,54,30276
179.4378,12,307,54,35344
179.438796,37,314,54,40000
179.439791,58,237,54,43264
179.440779,74,102,54,44100
179.441747,84,-13,54,41616
179.44275,86,-101,54,35721
179.443778,83,-151,54,27889
179.444738,77,-137,54,19600
179.44575,73,-95,54,12769
179.446747,70,-99,54,7056
179.447734,65,-142,54,2809
179.448769,57,-173,54,400
179.449738,45,-196,54,169
179.450846,30,-208,54,1936
179.451744,13,-221,54,5041
179.452781,-5,-267,54,8281
179.453716,-28,-342,54,12321
179.454733,-56,-429,54,17689
179.455673,-90,-474,54,26569
179.45667,-124,-416,54,37636
179.457654,-157,-344,54,49284
179.458702,-187,-289,54,59536
179.459842,-210,-233,54,65025
179.460753,-227,-228,54,66049
179.461804,-240,-277,54,64009
179.462708,-251,-320,54,60516
179.463744,-260,-333,54,53824
179.46461,-269,-315,54,45369
179.465622,-279,-303,54,35721
179.46659,-291,-336,54,27889
179.467598,-303,-372,54,21316
179.468585,-313,-375,54,15876
179.469596,-321,-354,54,12321
179.470558,-326,-307,54,9801
179.471588,-326,-234,54,7396
179.472557,-324,-219,54,5329
179.473554,-319,-243,54,3481
179.47456,-310,-239,54,1681
179.475551,-297,-232,54,324
179.476531,-289,-237,54,4
179.47753,-285,-268,54,324
179.47856,-283,-248,54,900
179.479504,-280,-178,54,1681
179.480569,-274,-116,54,2704
179.481495,-266,-105,54,3600
179.482486,-256,-128,54,4624
179.483778,-248,-165,55,5041
179.484652,-243,-218,55,4489
179.4855,-242,-285,55,3025
179.486469,-241,-315,55,2304
179.487446,-237,-294,55,2304
179.488467,-231,-263,55,2704
179.489518,-227,-259,55,2809
179.490442,-224,-263,55,2500
179.491432,-228,-304,55,1444
179.492423,-233,-325,55,529
179.49342,-236,-300,55,144
179.494425,-237,-249,55,36
179.49544,-236,-217,55,36
179.496395,-235,-218,55,36
179.497389,-233,-223,55,16
179.498391,-232,-227,55,1
179.499358,-234,-224,55,49
179.500402,-240,-240,55,256
179.501361,-246,-225,55,324
179.502355,-247,-144,55,196
179.503371,-245,-134,55,81
179.50434,-243,-177,55,36
179.505333,-240,-212,55,16
179.506336,-234,-197,55,1
179.50732,-228,-179,55,25
179.508304,-224,-190,55,64
179.509288,-222,-220,55,144
179.510293,-220,-224,55,400
179.511323,-214,-169,55,1024
179.512287,-204,-123,55,1849
179.51329,-194,-105,55,2601
179.514274,-190,-162,55,2809
179.515275,-192,-266,55,2304
179.51625,-197,-318,55,1369
179.517252,-202,-316,55,676
179.518244,-206,-306,55,324
179.51924,-210,-311,55,144
179.520333,-213,-304,55,49
179.521348,-218,-317,55,16
179.522364,-226,-302,55,484
179.52338,-231,-247,55,1369
179.524203,-231,-179,55,1681
179.52526,-230,-175,55,1444
179.526199,-230,-214,55,1089
179.527175,-234,-252,55,1024
179.528187,-238,-278,55,1024
179.52915,-240,-258,55,900
179.530151,-239,-207,55,676
179.531138,-243,-232,55,625
179.532146,-250,-266,55,576
179.533141,-257,-242,55,676
179.534144,-258,-184,55,729
179.535129,-253,-162,55,529
179.536119,-246,-178,55,256
179.537305,-239,-190,55,25
179.53812,-234,-198,55,16
179.53908,-228,-187,55,144
179.540089,-218,-120,55,441
179.541066,-205,-57,55,1444
179.542187,-194,-71,55,3136
179.543058,-188,-128,55,4761
179.544066,-188,-183,55,4900
179.545052,-190,-204,55,3969
179.546048,-189,-194,55,3249
179.547048,-187,-218,55,2704
179.548034,-185,-246,55,2401
179.549032,-184,-237,55,1936
179.550028,-184,-206,55,1156
179.551001,-181,-164,55,576
179.552004,-175,-143,55,361
179.553016,-171,-170,55,289
179.55398,-174,-252,55,196
179.554983,-179,-259,55,121
179.555967,-182,-235,55,49
179.556969,-183,-198,55,16
179.557988,-181,-162,55,16
179.558977,-178,-123,55,36
179.559955,-178,-130,55,36
179.561002,-184,-184,55,9
179.561975,-192,-215,55,289
179.562946,-196,-217,55,625
179.563924,-197,-200,55,529
179.564905,-194,-150,55,225
179.565906,-190,-117,55,64
179.566896,-186,-134,55,9
179.567894,-183,-177,55,4
179.568912,-181,-202,55,9
179.569873,-180,-194,55,4
179.57087,-179,-130,55,25
179.571871,-179,-144,55,169
179.572862,-180,-204,55,256
179.573876,-179,-219,55,324
179.574855,-176,-206,55,324
179.575881,-175,-219,55,225
179.576838,-179,-271,55,49
179.577819,-186,-305,55,9
179.578815,-195,-294,55,196
179.579809,-202,-281,55,484
179.580818,-206,-254,55,729
179.581797,-207,-247,55,784
179.582774,-210,-265,55,900
179.583785,-213,-260,55,1156
179.584769,-218,-255,55,1764
179.585764,-225,-259,55,2500
179.586783,-231,-246,55,2704
179.587766,-233,-227,55,2209
179.588739,-235,-232,55,1600
179.589751,-236,-219,55,1156
179.590746,-238,-180,55,1024
179.591734,-239,-157,55,1024
179.592714,-237,-164,55,729
179.593715,-235,-188,55,484
179.594706,-236,-208,55,324
179.595709,-236,-223,55,121
179.596678,-232,-190,55,1
179.597679,-222,-114,55,121
179.598689,-210,-50,55,625
179.599684,-200,-81,55,1296
179.600657,-196,-178,55,1764
179.601662,-196,-235,55,1849
179.602647,-193,-210,55,1936
179.603711,-188,-157,55,2209
179.605104,-182,-148,55,2916
179.606142,-179,-195,55,3249
179.608095,-179,-240,55,2809
179.608134,-180,-242,55,1764
179.608625,-179,-215,55,961
179.60961,-178,-210,55,484
179.610604,-181,-226,55,225
179.611564,-184,-221,55,144
179.612589,-185,-183,55,64
179.613588,-183,-157,55,25
179.614581,-180,-152,55,4
179.615566,-176,-142,55,9
179.616548,-173,-132,55,36
179.617581,-175,-141,55,25
179.618558,-180,-157,55,1
179.619581,-185,-188,55,49
179.620533,-188,-232,55,49
179.621521,-190,-271,55,36
179.62252,-192,-256,55,49
179.623495,-193,-174,55,100
179.624522,-189,-74,55,81
179.625528,-181,-20,55,25
179.62652,-170,-19,55,9
179.627495,-161,-61,55,196
179.62847,-157,-140,55,529
179.629488,-155,-174,55,900
179.630453,-152,-160,55,1296
179.631462,-148,-150,55,1764
179.632455,-148,-181,55,1936
179.633464,-150,-205,55,1849
179.634429,-154,-229,55,1225
179.635445,-158,-222,55,529
179.636473,-161,-188,55,81
179.637435,-163,-177,55,4
179.638405,-162,-148,55,25
179.639418,-159,-117,55,16
179.640383,-153,-106,55,1
179.641368,-145,-110,55,9
179.642394,-138,-117,55,100
179.643394,-134,-103,55,256
179.644365,-136,-114,55,324
179.645365,-143,-155,55,225
179.646355,-149,-150,55,144
179.647418,-153,-136,55,100
179.648336,-153,-143,55,81
179.649374,-153,-159,55,36
179.650321,-153,-175,55,0
179.651351,-154,-173,55,81
179.652325,-152,-139,55,196
179.653352,-148,-117,55,196
179.654317,-143,-124,55,49
179.655306,-139,-143,55,16
179.656297,-138,-177,55,121
179.657296,-141,-232,55,144
179.658278,-145,-233,55,64
179.659346,-149,-193,55,16
179.660329,-152,-162,55,1
179.661276,-154,-153,55,0
179.662256,-156,-163,55,16
179.663242,-160,-179,55,144
179.664231,-162,-162,55,361
179.66523,-162,-137,55,529
179.66623,-160,-124,55,484
179.667213,-160,-124,55,361
179.668197,-157,-87,55,144
179.669196,-151,-35,55,4
179.670211,-144,-47,55,64
179.671199,-141,-100,55,169
179.672185,-140,-120,55,256
179.673154,-137,-71,55,529
179.674153,-131,9,55,961
179.675235,-120,77,55,1764
179.676146,-108,60,55,2704
179.677133,-96,5,55,4096
179.678141,-85,-21,55,5184
179.679144,-76,-12,55,5625
179.680118,-68,4,55,5776
179.681126,-61,-7,55,6400
179.6821,-54,-21,55,7396
179.683114,-46,-23,55,8281
179.684108,-39,-32,55,8464
179.685102,-34,-39,55,7396
179.686111,-31,-52,55,5929
179.687087,-27,-53,55,4761
179.688076,-26,-53,55,3481
179.689084,-27,-66,55,2401
179.690075,-29,-78,55,1521
179.691037,-29,-107,55,1024
179.692099,-28,-102,55,676
179.693075,-28,-59,55,324
179.694037,-30,-32,55,81
179.69503,-35,-33,55,1
179.696035,-41,-63,55,100
179.697016,-48,-131,55,441
179.69801,-54,-133,55,784
179.699003,-54,-11,55,729
179.7,-48,125,55,361
179.700988,-38,176,55,81
179.701987,-28,178,55,0
179.702969,-20,149,55,64
179.704008,-13,95,55,289
179.70496,-11,18,55,576
179.705969,-11,-63,55,900
179.707,-14,-103,55,1156
179.707979,-17,-121,55,1369
179.708938,-20,-120,55,1156
179.709929,-20,-86,55,784
179.710909,-16,-31,55,484
179.711917,-10,32,55,324
179.712946,-3,72,55,289
179.713889,1,60,55,196
179.714889,0,-48,55,121
179.715891,-3,-140,55,64
179.71697,-4,-147,55,100
179.717905,-3,-113,55,196
179.718892,-4,-41,55,256
179.719908,-8,48,55,144
179.72086,-13,83,55,9
179.721858,-18,84,55,64
179.722838,-21,82,55,324
179.723833,-23,55,55,576
179.72481,-25,-21,55,625
179.725798,-24,-50,55,441
179.72684,-20,-22,55,256
179.727817,-16,-37,55,169
179.728813,-12,-37,55,64
179.729797,-8,-6,55,0
179.730778,-6,-2,55,49
179.731779,-7,24,55,121
179.732783,-8,52,55,169
179.733759,-10,25,55,169
179.734748,-8,-20,55,289
179.735794,-3,-36,55,441
179.736753,1,-53,55,441
179.73774,3,-64,55,361
179.738745,2,-71,55,196
179.739728,-5,-104,55,9
179.740737,-17,-150,55,121
179.741693,-29,-165,55,484
179.742703,-40,-128,55,1024
179.743698,-46,-77,55,1296
179.744704,-50,-93,55,1764
179.7457,-55,-155,55,2704
179.746674,-63,-188,55,4096
179.747685,-71,-196,55,5476
179.748675,-78,-166,55,6400
179.749663,-85,-147,55,6400
179.750657,-92,-154,55,5625
179.751658,-101,-152,55,5184
179.752632,-112,-167,55,5184
179.753639,-123,-203,55,5929
179.75463,-133,-209,55,6889
179.755621,-140,-184,55,7225
179.756607,-144,-124,55,6561
179.757605,-144,-74,55,5329
179.758663,-145,-76,55,4489
179.759592,-144,-94,55,3481
179.760577,-142,-117,55,2500
179.76157,-143,-166,55,1764
179.76259,-146,-190,55,1156
179.76354,-151,-186,55,784
179.764599,-155,-169,55,484
179.765582,-154,-133,55,196
179.766542,-152,-152,55,64
179.767545,-152,-193,55,64
179.768548,-152,-171,55,49
179.76952,-152,-152,55,64
179.770572,-152,-154,55,100
179.771498,-154,-190,55,121
179.772529,-159,-256,55,169
179.773521,-163,-292,55,144
179.7745,-167,-295,55,144
179.775487,-171,-265,55,289
179.776478,-177,-228,55,625
179.777463,-183,-198,55,961
179.778453,-188,-174,55,1296
179.779466,-192,-172,55,1600
179.780439,-195,-189,55,1849
179.781447,-198,-220,55,1936
179.782445,-202,-270,55,1849
179.783451,-209,-332,55,2116
179.784437,-219,-371,55,2704
179.78542,-229,-324,55,3364
179.78641,-233,-236,55,3136
179.787416,-234,-201,55,2601
179.788391,-236,-215,55,2304
179.789389,-240,-240,55,2304
179.790381,-246,-265,55,2601
179.791387,-249,-266,55,2601
179.792361,-249,-253,55,2209
179.793344,-247,-237,55,1444
179.794348,-244,-245,55,625
179.795357,-244,-263,55,225
179.796348,-246,-276,55,169
179.797337,-250,-261,55,256
179.79833,-253,-247,55,289
179.799356,-256,-231,55,256
179.800322,-259,-238,55,169
179.8013,-260,-246,55,121
179.802304,-259,-248,55,100
179.803301,-255,-256,55,64
179.804295,-250,-275,55,36
179.805313,-249,-306,55,25
179.806267,-255,-355,55,81
179.807294,-264,-374,55,196
179.80828,-269,-315,55,256
179.809259,-270,-272,55,196
179.810247,-271,-285,55,144
179.81125,-274,-325,55,196
179.812225,-279,-345,55,400
179.813225,-286,-370,55,961
179.81422,-293,-389,55,1849
179.815217,-298,-374,55,2401
179.816201,-301,-326,55,2116
179.817182,-302,-289,55,1444
179.8182,-305,-291,55,1296
179.819182,-308,-303,55,1444
179.820179,-312,-306,55,1681
179.821164,-316,-333,55,1764
179.822168,-323,-399,55,1936
179.823152,-333,-448,55,2209
179.824149,-341,-434,55,2304
179.825176,-348,-442,55,2500
179.826143,-354,-472,55,2809
179.827132,-357,-448,55,3025
179.828126,-360,-364,55,3025
179.829114,-360,-271,55,2704
179.83011,-356,-211,55,1936
179.831103,-351,-223,55,1225
179.832101,-345,-233,55,484
179.833102,-336,-190,55,9
179.834087,-323,-126,55,324
179.835074,-308,-69,55,1600
179.83612,-296,-79,55,3364
179.837061,-289,-154,55,4624
179.838064,-285,-212,55,5625
179.839057,-281,-232,55,6241
179.840058,-279,-264,55,5929
179.841025,-279,-326,55,5184
179.842056,-277,-364,55,4624
179.843017,-273,-357,55,3969
179.843992,-267,-320,55,3136
179.84503,-260,-299,55,2304
179.846006,-254,-348,55,1764
179.846986,-251,-396,55,1444
179.847983,-253,-406,55,1024
179.848978,-260,-407,55,441
179.849975,-268,-369,55,121
179.850973,-274,-339,55,25
179.851948,-279,-339,55,4
179.853006,-287,-358,55,196
179.853981,-298,-346,55,961
179.854947,-309,-290,55,2401
179.855944,-319,-276,55,4225
179.856928,-327,-307,55,5776
179.857933,-333,-344,55,6400
179.858943,-339,-353,55,6241
179.859919,-343,-333,55,5625
179.860898,-341,-296,55,4489
179.861885,-336,-261,55,3249
179.862888,-330,-227,55,1849
179.863895,-325,-230,55,729
179.864893,-324,-277,55,225
179.865875,-324,-344,55,25
179.86686,-322,-366,55,25
179.867868,-320,-354,55,169
179.868879,-317,-345,55,484
179.869854,-315,-343,55,784
179.870854,-317,-378,55,576
179.871837,-321,-416,55,225
179.872812,-325,-440,55,25
179.873824,-330,-447,55,25
179.874807,-337,-425,55,169
179.875804,-343,-401,55,361
179.876801,-346,-360,55,576
179.877795,-345,-325,55,625
179.878764,-344,-337,55,729
179.879755,-345,-341,55,900
179.880782,-346,-324,55,841
179.881771,-351,-354,55,900
179.882759,-358,-378,55,1089
179.883772,-364,-350,55,1156
179.884737,-364,-278,55,729
179.885743,-358,-210,55,225
179.886724,-348,-171,55,4
179.887713,-340,-189,55,25
179.888719,-335,-249,55,81
179.889714,-335,-338,55,100
179.890715,-335,-395,55,121
179.891694,-333,-367,55,324
179.892683,-327,-318,55,961
179.893679,-320,-308,55,1936
179.89467,-314,-314,55,2500
179.895657,-309,-293,55,2401
179.896667,-305,-282,55,1849
179.897654,-301,-245,55,1521
179.898633,-296,-229,55,1521
179.899647,-292,-275,55,1849
179.900641,-293,-342,55,1764
179.902059,-293,-355,55,1600
179.902846,-291,-332,55,1296
179.903744,-291,-347,55,841
179.904602,-294,-349,55,400
179.905625,-300,-330,55,81
179.90658,-306,-283,55,1
179.907575,-308,-237,55,49
179.908616,-307,-212,55,121
179.909577,-300,-207,55,64
179.910555,-293,-248,55,0
179.911547,-290,-313,55,9
179.912539,-292,-356,55,1
179.913517,-294,-344,55,9
179.914519,-294,-330,55,0
179.915494,-297,-351,55,9
179.916528,-302,-365,55,16
179.917515,-306,-327,55,4
179.918525,-306,-241,55,1
179.919532,-303,-207,55,9
179.92052,-299,-256,55,36
179.921516,-297,-318,55,49
179.922483,-298,-363,55,36
179.923471,-299,-372,55,25
179.924457,-301,-380,55,49
179.925467,-305,-412,55,64
179.926432,-312,-429,55,100
179.927437,-320,-397,55,196
179.92845,-328,-371,55,484
179.929443,-336,-365,55,1089
179.930428,-341,-340,55,1764
179.931424,-344,-369,55,2209
179.932424,-348,-435,55,2500
179.93341,-355,-489,55,3136
179.934395,-360,-439,55,3481
179.935392,-361,-355,55,3136
179.936379,-357,-294,55,2025
179.937388,-353,-246,55,1089
179.938355,-354,-271,55,676
179.939425,-359,-292,55,529
179.940341,-359,-258,55,324
179.94136,-353,-207,55,81
179.942367,-344,-172,55,16
179.94335,-333,-163,55,484
179.944337,-324,-188,55,1296
179.94532,-315,-236,55,2116
179.94631,-308,-289,55,2401
179.947302,-305,-350,55,2304
179.948316,-306,-388,55,2304
179.949297,-306,-355,55,2809
179.950278,-303,-292,55,3136
179.95129,-297,-239,55,3136
179.952264,-288,-250,55,3136
179.953284,-280,-331,55,2809
179.954279,-277,-375,55,2209
179.955248,-277,-370,55,1444
179.956252,-280,-349,55,784
179.957237,-284,-316,55,441
179.958217,-284,-285,55,484
179.95921,-284,-285,55,484
179.9602,-288,-333,55,225
179.961211,-296,-367,55,1
179.962291,-305,-360,55,289
179.963194,-313,-315,55,1089
179.964182,-318,-293,55,1681
179.965179,-320,-280,55,1849
179.966175,-319,-260,55,1521
179.967159,-313,-233,55,841
179.968164,-305,-240,55,441
179.969175,-300,-252,55,256
179.970164,-297,-220,55,81
179.971171,-296,-231,55,0
179.97215,-298,-290,55,49
179.973123,-298,-325,55,225
179.97412,-296,-342,55,484
179.97515,-296,-370,55,576
179.976107,-299,-402,55,400
179.977094,-304,-422,55,81
179.978115,-309,-384,55,16
179.979095,-313,-359,55,169
179.980075,-315,-373,55,324
179.981067,-315,-368,55,361
179.982078,-314,-332,55,256
179.983063,-313,-310,55,225
179.984051,-312,-266,55,256
179.985121,-310,-239,55,196
179.986055,-310,-261,55,121
179.987046,-312,-272,55,64
179.988031,-313,-255,55,16
179.989025,-312,-247,55,1
179.990035,-315,-270,55,0
179.99101,-320,-327,55,25
179.992072,-324,-370,55,100
179.992988,-326,-371,55,169
179.994561,-325,-326,55,169
179.996218,-320,-265,55,100
179.996317,-314,-279,55,16
179.997872,-307,-289,55,25
179.99838,-302,-273,55,121
179.998989,-296,-253,55,256
179.999929,-292,-285,55,529
180.000924,-292,-379,55,784
180.001939,-298,-438,55,676
180.002924,-303,-417,55,529
180.003933,-308,-357,55,289
180.004919,-311,-296,55,81
180.006053,-312,-285,55,4
180.006943,-313,-297,55,36
180.007932,-314,-267,55,144
180.00893,-314,-254,55,324
180.010049,-315,-288,55,529
180.011856,-314,-313,55,484
180.012079,-311,-313,55,169
180.013174,-308,-312,55,25
180.013922,-308,-310,55,0
180.014829,-311,-330,55,0
180.015817,-314,-341,55,4
180.016831,-316,-335,55,9
180.017805,-318,-314,55,16
180.0188,-320,-281,55,36
180.019825,-318,-255,55,9
180.020953,-314,-296,55,0
180.021809,-311,-375,55,0
180.022769,-308,-355,55,0
180.023843,-306,-325,55,4
180.024855,-309,-353,55,4
180.025802,-314,-381,55,0
180.02676,-319,-404,55,9
180.027743,-326,-410,55,64
180.028736,-332,-369,55,144
180.029737,-333,-305,55,225
180.030733,-331,-269,55,289
180.031719,-328,-254,55,289
180.032702,-325,-263,55,289
180.033712,-324,-284,55,324
180.034723,-322,-293,55,169
180.035696,-321,-311,55,49
180.036687,-322,-354,55,9
180.037703,-324,-359,55,4
180.038794,-326,-316,55,36
180.039882,-329,-325,55,16
180.040645,-334,-390,55,9
180.041643,-338,-451,55,100
180.042663,-343,-457,55,324
180.04367,-347,-412,55,529
180.044653,-347,-360,55,625
180.045637,-343,-287,55,484
180.046608,-333,-220,55,121
180.047611,-324,-214,55,0
180.048597,-317,-237,55,81
180.049606,-313,-224,55,256
180.050581,-310,-213,55,576
180.051582,-310,-245,55,784
180.052562,-311,-292,55,1024
180.053551,-314,-331,55,1089
180.054576,-315,-327,55,1024
180.055549,-316,-333,55,729
180.056554,-316,-341,55,289
180.057593,-314,-319,55,100
180.058576,-313,-306,55,16
180.059689,-313,-323,55,0
180.060619,-309,-317,55,1
180.061627,-302,-297,55,64
180.062567,-292,-268,55,361
180.06367,-285,-272,55,841
180.064566,-283,-305,55,1024
180.065713,-284,-318,55,1024
180.066458,-290,-345,55,676
180.067463,-298,-374,55,256
180.068494,-306,-384,55,49
180.06946,-312,-351,55,1
180.070446,-317,-311,55,64
180.071418,-319,-282,55,289
180.072416,-319,-297,55,729
180.073471,-318,-318,55,1089
180.074419,-317,-295,55,1156
180.075455,-313,-265,55,841
180.076434,-311,-287,55,441
180.077405,-310,-311,55,144
180.078395,-311,-326,55,25
180.079489,-313,-351,55,1
180.080504,-315,-355,55,4
180.081397,-318,-357,55,1
180.082368,-322,-361,55,9
180.083387,-327,-366,55,81
180.084348,-331,-376,55,196
180.085392,-332,-357,55,361
180.086333,-330,-295,55,361
180.087351,-323,-227,55,169
180.088333,-315,-222,55,16
180.089329,-310,-269,55,9
180.09031,-310,-311,55,25
180.091302,-310,-283,55,64
180.092292,-309,-259,55,169
180.093401,-308,-301,55,361
180.094295,-312,-386,55,361
180.095414,-320,-414,55,144
180.09625,-323,-358,55,49
180.09728,-324,-327,55,1
180.098388,-325,-352,55,100
180.099289,-326,-361,55,256
180.100239,-324,-308,55,196
180.101221,-319,-257,55,81
180.102235,-313,-244,55,16
180.103226,-307,-250,55,1
180.104235,-301,-268,55,121
180.105207,-300,-318,55,400
180.106194,-303,-367,55,400
180.107197,-311,-384,55,169
180.108175,-318,-357,55,49
180.109156,-321,-332,55,25
180.110155,-321,-311,55,9
180.111147,-321,-289,55,4
180.112157,-322,-284,55,81
180.113138,-325,-356,55,324
180.114141,-328,-443,55,729
180.115161,-330,-456,55,900
180.116153,-332,-397,55,841
180.117156,-333,-338,55,484
180.118118,-331,-325,55,169
180.119115,-331,-356,55,100
180.120097,-336,-411,55,225
180.121098,-344,-418,55,529
180.122097,-352,-390,55,900
180.123076,-357,-361,55,1024
180.124073,-360,-322,55,1024
180.125061,-356,-247,55,676
180.126087,-347,-190,55,225
180.127055,-337,-185,55,16
180.128038,-330,-204,55,1
180.12902,-324,-219,55,49
180.13008,-321,-244,55,225
180.131025,-318,-231,55,676
180.13203,-315,-220,55,1369
180.133014,-309,-241,55,2304
180.134019,-300,-269,55,3600
180.134992,-291,-279,55,4225
180.135988,-285,-272,55,3844
180.136996,-281,-253,55,3136
180.137985,-277,-245,55,2809
180.138973,-270,-212,55,2916
180.13994,-258,-171,55,3969
180.140969,-247,-204,55,5041
180.141934,-242,-295,55,5329
180.142945,-240,-317,55,4761
180.143947,-238,-285,55,3844
180.144927,-238,-251,55,2809
180.145918,-243,-273,55,1764
180.14692,-248,-301,55,1089
180.147908,-253,-294,55,576
180.14891,-258,-318,55,144
180.1499,-264,-362,55,36
180.150905,-271,-369,55,576
180.151923,-276,-338,55,1156
180.152888,-281,-322,55,1681
180.15389,-285,-365,55,2209
180.154869,-291,-394,55,2809
180.155859,-297,-397,55,2916
180.156881,-303,-365,55,3025
180.157846,-307,-325,55,2916
180.158831,-313,-333,55,3025
180.15981,-323,-368,55,3481
180.16084,-333,-403,55,3844
180.161816,-341,-463,55,4225
180.162813,-347,-433,55,4356
180.163795,-349,-323,55,4096
180.164782,-349,-244,55,3364
180.165791,-346,-214,55,2401
180.166778,-340,-187,55,1369
180.167791,-333,-155,55,676
180.168805,-325,-153,55,144
180.169781,-318,-230,55,25
180.170747,-317,-348,55,256
180.171754,-321,-421,55,400
180.17279,-326,-415,55,441
180.173732,-325,-355,55,576
180.174713,-320,-278,55,841
180.175708,-311,-236,55,1225
180.176709,-306,-264,55,1156
180.177705,-306,-318,55,729
180.178705,-308,-365,55,289
180.179711,-307,-348,55,121
180.180682,-301,-287,55,256
180.181691,-292,-291,55,841
180.182703,-288,-346,55,1444
180.183681,-291,-390,55,1156
180.18465,-298,-371,55,484
180.185661,-303,-318,55,64
180.186649,-307,-279,55,1
180.187624,-313,-266,55,49
180.18865,-319,-265,55,121
180.189646,-320,-264,55,169
180.190611,-318,-312,55,289
180.191625,-316,-364,55,576
180.192634,-313,-358,55,625
180.193603,-312,-341,55,441
180.194577,-314,-314,55,256
180.195571,-315,-259,55,144
180.196565,-315,-259,55,64
180.197554,-316,-352,55,9
180.198585,-319,-423,55,0
180.199577,-323,-423,55,9
180.200559,-327,-371,55,81
180.201552,-328,-309,55,144
180.202564,-324,-259,55,121
180.203541,-316,-242,55,16
180.204515,-311,-257,55,9
180.205516,-311,-331,55,16
180.206556,-315,-351,55,0
180.207482,-316,-280,55,0
180.208543,-312,-191,55,49
180.209494,-307,-162,55,256
180.210472,-301,-191,55,676
180.211475,-296,-275,55,1024
180.212486,-297,-364,55,729
180.213478,-298,-373,55,324
180.21445,-299,-326,55,144
180.215428,-301,-300,55,100
180.216437,-303,-292,55,144
180.217465,-300,-297,55,256
180.218442,-292,-256,55,400
180.219445,-283,-247,55,576
180.220418,-280,-318,55,441
180.221441,-281,-334,55,225
180.222409,-282,-267,55,225
180.223412,-282,-241,55,256
180.224388,-281,-253,55,324
180.225396,-278,-262,55,529
180.226369,-274,-262,55,841
180.227372,-273,-276,55,729
180.228362,-278,-289,55,196
180.229369,-284,-281,55,1
180.230353,-288,-262,55,64
180.231348,-288,-275,55,49
180.232329,-286,-333,55,16
180.233345,-286,-363,55,16
180.234318,-287,-355,55,36
180.235321,-288,-311,55,100
180.236303,-284,-220,55,100
180.237323,-277,-145,55,16
180.238311,-272,-166,55,36
180.239315,-271,-221,55,169
180.240324,-266,-225,55,484
180.241298,-260,-209,55,784
180.242307,-258,-231,55,784
180.243245,-261,-295,55,625
180.244258,-266,-354,55,441
180.245229,-272,-381,55,256
180.246248,-276,-348,55,64
180.247236,-278,-311,55,1
180.248226,-278,-303,55,36
180.249232,-279,-293,55,64
180.250232,-280,-290,55,196
180.251198,-283,-318,55,529
180.252205,-282,-316,55,576
180.253199,-279,-309,55,324
180.254217,-279,-344,55,169
