timestamp,New ECG Sample
4001.639569,-8
4001.64063,-43
4001.641605,-42
4001.642519,-41
4001.643829,-27
4001.644549,-2
4001.645529,19
4001.646533,49
4001.647492,59
4001.648536,59
4001.649489,65
4001.65048,81
4001.651467,86
4001.652489,77
4001.653506,59
4001.654518,57
4001.655452,60
4001.656448,69
4001.657453,52
4001.658441,3
4001.659442,-19
4001.660399,-19
4001.661481,-12
4001.662458,-12
4001.663407,-9
4001.664368,-27
4001.665417,-51
4001.666412,-42
4001.667419,-21
4001.668367,-11
4001.66935,-22
4001.670388,-69
4001.671357,-79
4001.672479,-54
4001.673356,-26
4001.674419,2
4001.675323,14
4001.676299,27
4001.677312,29
4001.678319,4
4001.67927,-40
4001.680281,-40
4001.681264,-20
4001.682332,-30
4001.683257,-47
4001.684264,-38
4001.685213,-35
4001.686263,-36
4001.687239,-55
4001.688231,-75
4001.689248,-67
4001.690208,-48
4001.69124,-58
4001.692169,-60
4001.69322,-38
4001.694212,-14
4001.695208,-23
4001.69621,-20
4001.697162,-10
4001.698171,-2
4001.699309,32
4001.700154,36
4001.701161,-8
4001.702142,-34
4001.703139,-33
4001.704152,-10
4001.705144,13
4001.706093,13
4001.707114,-11
4001.708094,-52
4001.709115,-102
4001.710382,-112
4001.711096,-80
4001.712083,-42
4001.713074,-25
4001.714087,-19
4001.715116,-27
4001.71603,-66
4001.717015,-75
4001.718119,-57
4001.719008,-65
4001.720071,-60
4001.721217,-15
4001.722012,44
4001.723145,59
4001.723995,23
4001.724967,-26
4001.725995,-43
4001.726996,-34
4001.727959,-30
4001.729339,-16
4001.729928,-7
4001.730948,-16
4001.731984,-25
4001.733067,1
4001.734019,30
4001.734966,29
4001.736115,30
4001.737072,30
4001.737895,20
4001.738948,12
4001.739883,4
4001.740872,-23
4001.741916,-36
4001.742906,-28
4001.743894,-5
4001.744894,21
4001.745874,34
4001.746884,24
4001.747897,29
4001.748815,56
4001.749805,99
4001.750832,129
4001.751819,123
4001.752833,126
4001.753786,116
4001.754811,103
4001.755792,107
4001.756808,129
4001.757917,170
4001.758786,234
4001.759806,276
4001.76075,274
4001.76182,265
4001.762711,268
4001.763918,297
4001.764766,328
4001.765759,332
4001.766763,297
4001.76771,237
4001.768762,146
4001.769709,66
4001.77068,13
4001.771694,-32
4001.772693,-64
4001.77369,-107
4001.77474,-159
4001.775649,-182
4001.776671,-217
4001.777647,-294
4001.778646,-381
4001.779698,-418
4001.780635,-406
4001.781618,-383
4001.782579,-352
4001.783602,-317
4001.784825,-298
4001.785594,-295
4001.786615,-272
4001.78755,-265
4001.788562,-224
4001.789565,-148
4001.790527,-88
4001.791608,-66
4001.79255,-71
4001.793539,-69
4001.794549,-68
4001.795653,-41
4001.796547,15
4001.797505,54
4001.798528,62
4001.79959,57
4001.800496,41
4001.80146,15
4001.802458,-15
4001.803457,-49
4001.804509,-65
4001.805473,-51
4001.80676,-19
4001.807443,11
4001.808451,35
4001.809434,56
4001.810415,53
4001.811402,40
4001.812418,37
4001.81341,42
4001.814415,36
4001.815411,28
4001.81636,59
4001.817386,109
4001.81838,115
4001.819341,96
4001.820357,72
4001.821361,68
4001.822521,59
4001.823384,31
4001.824325,12
4001.825363,23
4001.826425,52
4001.827339,74
4001.828343,82
4001.829325,55
4001.830279,26
4001.831297,8
4001.83231,28
4001.833323,52
4001.834486,52
4001.835276,15
4001.836288,-9
4001.83732,-15
4001.838252,5
4001.839212,49
4001.840219,93
4001.841698,104
4001.842203,80
4001.843273,79
4001.844252,81
4001.845291,74
4001.846199,81
4001.847255,92
4001.848144,95
4001.849522,106
4001.850162,105
4001.851145,87
4001.852162,50
4001.853186,13
4001.854154,4
4001.855139,27
4001.856229,55
4001.857121,53
4001.858227,49
4001.859177,50
4001.860093,53
4001.86108,57
4001.862194,68
4001.863117,92
4001.864033,122
4001.865051,126
4001.86608,113
4001.867043,98
4001.868023,89
4001.868998,64
4001.870047,46
4001.871029,41
4001.872187,47
4001.873075,61
4001.873985,72
4001.875,75
4001.875982,61
4001.877067,70
4001.87799,91
4001.879092,109
4001.879979,117
4001.880961,109
4001.881952,100
4001.882999,107
4001.883964,93
4001.884999,56
4001.886035,2
4001.886939,-37
4001.888065,-45
4001.888873,-25
4001.889883,-5
4001.890867,-24
4001.891877,-31
4001.892871,-1
4001.893841,29
4001.894868,52
4001.895985,80
4001.896895,91
4001.897984,91
4001.898832,104
4001.899894,143
4001.900796,196
4001.901804,197
4001.902835,173
4001.903803,154
4001.904796,135
4001.905983,104
4001.906753,77
4001.907777,67
4001.908745,76
4001.909813,120
4001.910767,172
4001.911844,190
4001.912751,194
4001.91376,165
4001.914698,109
4001.915694,63
4001.916713,28
4001.917675,0
4001.918679,12
4001.919667,31
4001.920648,41
4001.921776,53
4001.92264,81
4001.923663,114
4001.924666,126
4001.925636,117
4001.926654,110
4001.927618,114
4001.928611,143
4001.9296,165
4001.930601,148
4001.93157,116
4001.932534,110
4001.933614,119
4001.934573,136
4001.93559,167
4001.936561,188
4001.937556,193
4001.938527,184
4001.939564,163
4001.9405,150
4001.941556,127
4001.942538,111
4001.943548,118
4001.944564,147
4001.945536,163
4001.946486,152
4001.94747,135
4001.948486,132
4001.949577,151
4001.950468,181
4001.951452,200
4001.952472,197
4001.953445,179
4001.954464,157
4001.955444,162
4001.956566,171
4001.957436,149
4001.958421,120
4001.959399,125
4001.960418,161
4001.961443,209
4001.962402,227
4001.963368,208
4001.964333,177
4001.96543,188
4001.966421,227
4001.967445,244
4001.968396,228
4001.969401,214
4001.970331,218
4001.971382,219
4001.972357,215
4001.973363,199
4001.97432,169
4001.975332,155
4001.976336,167
4001.977252,174
4001.978462,177
4001.979299,180
4001.980255,188
4001.981253,189
4001.982244,177
4001.983233,185
4001.984247,198
4001.985265,193
4001.986233,191
4001.9872,198
4001.988231,208
4001.989194,214
4001.990445,208
4001.99121,182
4001.992216,134
4001.993187,80
4001.994188,52
4001.995214,60
4001.996141,79
4001.997283,106
4001.998174,133
4001.999175,156
4002.000141,154
4002.00115,104
4002.002392,44
4002.003199,22
4002.004118,64
4002.005087,85
4002.006095,46
4002.007092,-33
4002.008072,-90
4002.009119,-109
4002.010086,-100
4002.01113,-90
4002.012083,-83
4002.013106,-85
4002.014129,-87
4002.015151,-88
4002.016031,-79
4002.017008,-58
4002.018064,-50
4002.019027,-61
4002.019993,-78
4002.020973,-94
4002.021992,-105
4002.022985,-108
4002.024309,-130
4002.02496,-166
4002.025977,-185
4002.026948,-187
4002.027973,-179
4002.028975,-172
4002.029977,-175
4002.030979,-171
4002.03198,-147
4002.032982,-135
4002.033984,-141
4002.034986,-140
4002.035988,-138
4002.036989,-147
4002.037951,-151
4002.038864,-168
4002.039931,-183
4002.04085,-197
4002.041857,-209
4002.042989,-197
4002.043846,-159
4002.04483,-122
4002.045834,-103
4002.047079,-91
4002.047811,-94
4002.04881,-94
4002.049844,-81
4002.050791,-83
4002.051779,-106
4002.052788,-146
4002.053785,-171
4002.054757,-176
4002.055832,-178
4002.056813,-181
4002.057892,-187
4002.058722,-192
4002.059826,-176
4002.060722,-149
4002.061732,-142
4002.062702,-128
4002.06372,-106
4002.064708,-106
4002.065897,-95
4002.066708,-98
4002.067707,-138
4002.068835,-166
4002.06981,-152
4002.070626,-136
4002.071673,-134
4002.072639,-120
4002.073626,-100
4002.074637,-138
4002.075679,-202
4002.076628,-223
4002.077663,-199
4002.078681,-163
4002.079629,-132
4002.08067,-115
4002.081606,-99
4002.082683,-76
4002.083583,-61
4002.084577,-70
4002.085573,-92
4002.086595,-99
4002.087644,-108
4002.088487,-117
4002.089641,-102
4002.090523,-80
4002.091571,-99
4002.092546,-166
4002.093597,-180
4002.094545,-147
4002.095608,-110
4002.096507,-91
4002.097503,-91
4002.098495,-94
4002.099487,-86
4002.100455,-76
4002.101638,-64
4002.102428,-57
4002.103757,-61
4002.104455,-72
4002.105406,-73
4002.106481,-96
4002.107478,-135
4002.108423,-154
4002.109429,-158
4002.110393,-157
4002.111382,-138
4002.112435,-111
4002.113471,-76
4002.114654,-57
4002.115402,-70
4002.116375,-79
4002.117339,-74
4002.118332,-66
4002.119347,-62
4002.120335,-68
4002.121675,-94
4002.122298,-86
4002.123337,-48
4002.124496,-34
4002.125292,-42
4002.126574,-36
4002.127301,-28
4002.128307,-38
4002.129314,-54
4002.13032,-87
4002.131326,-126
4002.132333,-136
4002.133339,-127
4002.134345,-127
4002.135352,-123
4002.136358,-113
4002.137365,-95
4002.138371,-77
4002.139377,-62
4002.140384,-54
4002.14139,-45
4002.142292,-35
4002.143259,-20
4002.144205,-25
4002.145183,-60
4002.146186,-86
4002.147149,-82
4002.148138,-74
4002.149136,-48
4002.150124,-11
4002.151132,50
4002.152114,109
4002.153191,103
4002.154207,41
4002.15512,-22
4002.156124,-52
4002.157101,-59
4002.15809,-65
4002.159099,-91
4002.1601,-96
4002.161066,-97
4002.162129,-88
4002.163057,-75
4002.164049,-81
4002.165031,-72
4002.166035,-37
4002.167048,-13
4002.168029,-29
4002.168974,-72
4002.170023,-108
4002.170973,-98
4002.172026,-75
4002.173018,-39
4002.174093,13
4002.17497,26
4002.175982,-18
4002.176954,-69
4002.177973,-83
4002.179076,-60
4002.179962,-23
4002.180972,-6
4002.181986,-11
4002.182928,-14
4002.183951,-3
4002.184947,-14
4002.185889,-24
4002.186947,-40
4002.18788,-49
4002.188949,-43
4002.189899,-41
4002.190928,-41
4002.191932,-49
4002.192865,-83
4002.193834,-105
4002.194857,-78
4002.195829,-31
4002.196835,2
4002.197837,-8
4002.19881,-46
4002.19979,-72
4002.200791,-91
4002.201915,-103
4002.202785,-94
4002.203787,-74
4002.204762,-54
4002.205736,-34
4002.20678,-13
4002.207727,-15
4002.208741,-28
4002.209978,-52
4002.210757,-60
4002.211762,-45
4002.212728,-17
4002.213885,9
4002.214739,4
4002.215746,-4
4002.21673,-8
4002.217689,-42
4002.218691,-73
4002.219748,-58
4002.220781,-35
4002.221718,-36
4002.222678,-59
4002.223708,-66
4002.224688,-54
4002.225693,-49
4002.226653,-55
4002.227657,-61
4002.228703,-54
4002.229581,-51
4002.23076,-40
4002.231663,-26
4002.232681,5
4002.233546,45
4002.23458,60
4002.235769,22
4002.23657,-32
4002.237697,-44
4002.238629,-14
4002.239655,-2
4002.240529,-14
4002.241529,-35
4002.242538,-63
4002.243494,-71
4002.244529,-42
4002.245552,-9
4002.246543,5
4002.247488,-6
4002.249175,-17
4002.250661,17
4002.250743,50
4002.251634,22
4002.252449,-3
4002.253465,-26
4002.254447,-58
4002.255458,-54
4002.256521,-34
4002.257417,-49
4002.258438,-93
4002.259423,-114
4002.260387,-95
4002.261433,-56
4002.262402,-14
4002.263612,18
4002.264522,37
4002.266258,44
4002.266385,39
4002.267451,28
4002.269315,5
4002.269377,-28
4002.270328,-50
4002.271337,-56
4002.272331,-42
4002.27334,-17
4002.274324,-4
4002.275335,-15
4002.276388,-33
4002.27727,-35
4002.278326,-22
4002.279275,-11
4002.280255,6
4002.281439,39
4002.282413,77
4002.283217,111
4002.284254,117
4002.285252,80
4002.286234,32
4002.28723,8
4002.288205,2
4002.289204,11
4002.290286,22
4002.291164,25
4002.29245,23
4002.293235,8
4002.294255,1
4002.295159,-3
4002.296237,3
4002.297172,26
4002.298154,53
4002.299247,60
4002.300143,62
4002.301231,58
4002.302119,39
4002.303121,29
4002.304178,43
4002.305099,69
4002.30611,72
4002.307345,51
4002.308317,50
4002.309198,64
4002.310158,57
4002.311044,42
4002.312091,54
4002.313092,73
4002.314015,65
4002.315039,37
4002.315978,31
4002.316981,45
4002.318007,41
4002.318966,31
4002.320025,17
4002.320995,8
4002.321972,-6
4002.32297,8
4002.323971,11
4002.324947,-39
4002.325974,-80
4002.326934,-82
4002.327959,-64
4002.328977,-41
4002.329942,-35
4002.330916,-62
4002.331924,-91
4002.332956,-91
4002.334102,-64
4002.334975,-51
4002.335922,-59
4002.33693,-66
4002.337893,-57
4002.33883,-57
4002.339838,-69
4002.340865,-68
4002.341852,-88
4002.342827,-102
4002.343848,-93
4002.344818,-104
4002.345804,-127
4002.346831,-126
4002.347832,-86
4002.348908,-31
4002.349774,18
4002.350802,35
4002.351802,2
4002.352759,-33
4002.353771,-51
4002.354801,-56
4002.355764,-27
4002.356767,-8
4002.357823,-26
4002.359165,-46
4002.360062,-40
4002.360735,-36
4002.361725,-25
4002.362759,-19
4002.363728,-18
4002.364728,-10
4002.365696,-4
4002.366753,-14
4002.367755,-25
4002.368903,-29
4002.369644,-26
4002.370643,-15
4002.371652,0
4002.372671,1
4002.37364,-14
4002.374631,-48
4002.375648,-66
4002.376676,-32
4002.377615,-12
4002.378623,-15
4002.379605,-32
4002.380633,-44
4002.381612,-30
4002.382587,-2
4002.383591,23
4002.384588,39
4002.385539,17
4002.386553,-40
4002.387613,-83
4002.388513,-91
4002.389505,-55
4002.39049,-12
4002.391526,-10
4002.39253,-37
4002.393513,-51
4002.394511,-28
4002.395552,-25
4002.396487,-35
4002.397493,-63
4002.398508,-92
4002.399466,-90
4002.400475,-65
4002.401498,-43
4002.402523,-34
4002.403439,-31
4002.404729,-49
4002.405481,-70
4002.406433,-42
4002.407387,-15
4002.408471,-8
4002.409446,13
4002.410418,13
4002.411388,5
4002.412411,18
4002.413428,33
4002.414335,42
4002.415321,55
4002.416336,93
4002.417332,122
4002.418333,134
4002.419462,141
4002.420357,159
4002.42134,180
4002.42229,202
4002.423287,254
4002.424266,318
4002.425422,357
4002.426329,373
4002.427272,374
4002.428262,355
4002.42927,366
4002.43022,410
4002.431306,446
4002.432276,445
4002.433256,394
4002.434296,316
4002.4352,227
4002.436243,144
4002.43722,86
4002.438312,55
4002.43919,26
4002.440205,-32
4002.441195,-134
4002.44221,-231
4002.443261,-278
4002.444163,-283
4002.445167,-281
4002.446155,-293
4002.447163,-317
4002.448147,-334
4002.449132,-341
4002.45014,-321
4002.451183,-283
4002.452132,-248
4002.453094,-217
4002.454078,-177
4002.455062,-129
4002.456091,-95
4002.457076,-103
4002.458149,-121
4002.459071,-138
4002.460091,-155
4002.461101,-135
4002.462054,-100
4002.463051,-87
4002.464042,-96
4002.465009,-92
4002.466099,-66
4002.467001,-31
4002.46803,1
4002.46906,6
4002.470033,1
4002.470978,19
4002.471963,42
4002.473055,46
4002.473972,30
4002.47503,5
4002.47604,6
4002.476959,29
4002.477954,15
4002.478932,-19
4002.480126,-35
4002.480986,-45
4002.482108,-50
4002.482875,-45
4002.483916,6
4002.485095,60
4002.48596,80
4002.486918,65
4002.487938,37
4002.488861,11
4002.489876,12
4002.490851,0
4002.492083,-35
4002.492829,-63
4002.493794,-76
4002.494817,-62
4002.495812,-48
4002.496895,-45
4002.497801,-21
4002.498787,7
4002.499792,44
4002.500791,90
4002.501866,110
4002.503127,96
4002.503758,78
4002.504735,62
4002.505755,60
4002.506699,59
4002.507741,44
4002.508724,40
4002.509721,50
4002.510766,72
4002.511726,86
4002.512715,90
4002.51367,85
4002.514718,62
4002.515674,48
4002.516707,64
4002.517683,99
4002.518694,125
4002.519683,115
4002.520652,77
4002.521662,62
4002.52265,69
4002.523633,47
4002.524622,23
4002.525697,10
4002.526608,6
4002.527588,9
4002.528677,-7
4002.529901,-36
4002.530679,-51
4002.531797,-31
4002.53264,0
4002.533554,34
4002.534579,40
4002.535545,42
4002.536694,70
4002.537594,86
4002.538539,53
4002.539537,29
4002.540557,-2
4002.541499,-23
4002.542477,-10
4002.54348,10
4002.544499,11
4002.545607,5
4002.546495,3
4002.547681,16
4002.548477,56
4002.549455,87
4002.550544,108
4002.551447,122
4002.552474,107
4002.553441,82
4002.554437,60
4002.555437,52
4002.55642,42
4002.557415,-1
4002.558402,-36
4002.559765,-26
4002.560524,18
4002.561389,61
4002.562449,87
4002.563388,82
4002.564383,48
4002.565359,14
4002.56636,12
4002.567345,55
4002.568335,91
4002.569335,98
4002.570323,96
4002.57129,80
4002.572291,69
4002.573304,62
4002.574339,55
4002.575268,49
4002.576324,58
4002.577321,76
4002.578304,86
4002.579287,93
4002.580271,92
4002.581297,68
4002.58231,57
4002.583289,77
4002.584229,107
4002.585242,111
4002.586229,109
4002.587232,114
4002.588241,128
4002.589158,143
4002.590221,174
4002.591221,190
4002.592233,162
4002.593196,112
4002.594197,75
4002.595235,52
4002.596172,43
4002.597133,56
4002.598154,87
4002.599461,112
4002.600127,130
4002.601151,138
4002.602148,115
4002.603105,86
4002.604196,97
4002.605126,120
4002.606096,120
4002.607111,117
4002.609508,120
4002.610603,123
4002.611048,157
4002.611493,162
4002.612049,124
4002.613121,131
4002.614205,164
4002.615221,169
4002.616014,155
4002.617019,171
4002.61817,195
4002.619066,191
4002.620075,148
4002.620988,82
4002.622129,47
4002.623039,72
4002.623984,95
4002.624959,106
4002.625963,103
4002.626933,91
4002.627942,103
4002.628949,127
4002.629901,140
4002.630901,150
4002.631897,148
4002.632908,161
4002.633906,206
4002.634879,243
4002.63588,248
4002.636926,228
4002.63809,198
4002.638873,174
4002.639872,173
4002.640968,183
4002.641845,184
4002.642837,194
4002.64384,189
4002.644856,172
4002.645849,156
4002.646817,159
4002.64794,157
4002.64886,152
4002.64981,172
4002.650765,190
4002.651783,175
4002.652795,149
4002.653807,134
4002.654757,147
4002.655705,162
4002.65679,155
4002.657738,141
4002.658761,136
4002.659884,142
4002.660747,136
4002.661876,102
4002.662745,77
4002.663801,81
4002.664977,73
4002.665894,35
4002.666698,9
4002.667714,16
4002.669918,28
4002.670027,32
4002.670714,41
4002.67168,64
4002.672696,50
4002.673629,-10
4002.674659,-43
4002.675636,-45
4002.676626,-28
4002.677617,-7
4002.678722,12
4002.679576,21
4002.680721,7
4002.681579,-36
4002.682601,-83
4002.68362,-125
4002.684604,-155
4002.685555,-166
4002.686548,-157
4002.68752,-123
4002.688536,-117
4002.689533,-112
4002.690545,-110
4002.691481,-125
4002.692516,-149
4002.693511,-171
4002.694482,-185
4002.695488,-176
4002.696451,-173
4002.697484,-197
4002.698473,-211
4002.699441,-188
4002.700492,-138
4002.701452,-91
4002.702446,-73
4002.703434,-89
4002.704414,-118
4002.705416,-143
4002.706397,-144
4002.707398,-136
4002.708422,-132
4002.709717,-149
4002.710414,-158
4002.711388,-165
4002.712876,-171
4002.713441,-179
4002.714372,-205
4002.715366,-223
4002.716354,-207
4002.717301,-183
4002.718331,-185
4002.719307,-191
4002.720326,-192
4002.721319,-183
4002.722311,-166
4002.723356,-142
4002.724316,-126
4002.725428,-132
4002.726291,-150
4002.727317,-144
4002.728299,-126
4002.729265,-105
4002.730257,-91
4002.731236,-101
4002.732258,-118
4002.73329,-130
4002.734215,-152
4002.735237,-160
4002.736203,-161
4002.737224,-190
4002.738194,-209
4002.739207,-187
4002.740157,-145
4002.741167,-127
4002.742181,-136
4002.743153,-125
4002.744144,-96
4002.745141,-63
4002.746165,-51
4002.747133,-48
4002.74813,-77
4002.749114,-124
4002.750125,-159
4002.751204,-159
4002.752405,-143
4002.753157,-116
4002.754098,-90
4002.755064,-76
4002.756076,-79
4002.757041,-77
4002.758062,-84
4002.759053,-86
4002.760054,-71
4002.761038,-52
4002.76214,-67
4002.763057,-89
4002.764026,-89
4002.765003,-85
4002.765994,-97
4002.767003,-114
4002.767996,-120
4002.768993,-140
4002.769982,-167
4002.770976,-174
4002.771971,-154
4002.772978,-146
4002.773963,-146
4002.774983,-139
4002.77598,-105
4002.776942,-50
4002.778048,5
4002.778925,21
4002.779961,12
4002.780912,3
4002.78188,-20
4002.78289,-51
4002.783895,-61
4002.784871,-69
4002.78587,-82
4002.786894,-108
4002.78788,-138
4002.788899,-152
4002.789872,-135
4002.790946,-106
4002.791837,-100
4002.792927,-113
4002.793849,-106
4002.794842,-81
4002.795838,-54
4002.796824,-29
4002.797797,-13
4002.798781,-11
4002.799789,-16
4002.800809,-18
4002.801787,-22
4002.802755,-38
4002.803783,-54
4002.804737,-50
4002.805794,-33
4002.80675,-12
4002.8078,2
4002.808789,-8
4002.809698,-38
4002.8107,-88
4002.811717,-87
4002.812691,-57
4002.813715,-48
4002.814722,-53
4002.815671,-56
4002.816645,-37
4002.817693,-16
4002.818687,-25
4002.819636,-37
4002.820689,-31
4002.821652,-17
4002.822645,3
4002.823649,5
4002.824624,-15
4002.825601,-61
4002.82662,-100
4002.82757,-109
4002.828623,-97
4002.829599,-76
4002.830976,-84
4002.831588,-122
4002.83259,-119
4002.833587,-90
4002.834562,-61
4002.835555,-50
4002.836605,-52
4002.837571,-56
4002.838504,-62
4002.839574,-60
4002.840575,-46
4002.841514,-40
4002.842511,-34
4002.843545,-14
4002.844491,-2
4002.845488,-12
4002.846475,-26
4002.847483,-42
4002.848448,-70
4002.849464,-91
4002.850444,-100
4002.851463,-90
4002.852441,-66
4002.853461,-29
4002.854444,5
4002.855434,9
4002.856479,9
4002.857466,15
4002.858534,-23
4002.85941,-72
4002.860477,-91
4002.861372,-91
4002.8624,-91
4002.863404,-78
4002.864356,-66
4002.865359,-58
4002.866362,-49
4002.867393,-44
4002.868353,-32
4002.869335,-36
4002.870373,-66
4002.871322,-59
4002.872327,8
4002.873293,59
4002.874335,42
4002.875304,7
4002.876278,8
4002.877251,7
4002.878246,-18
4002.879256,-53
4002.88023,-78
4002.881409,-79
4002.882243,-75
4002.883243,-64
4002.884266,-42
4002.885245,-35
4002.886194,-33
4002.887201,-15
4002.888286,-21
4002.889204,-33
4002.89019,-44
4002.891176,-50
4002.892302,-57
4002.89331,-65
4002.894185,-59
4002.895239,-54
4002.89617,-62
4002.89716,-58
4002.898143,-49
4002.899146,-38
4002.90015,-19
4002.90115,10
4002.902182,23
4002.903091,29
4002.904889,30
4002.905098,29
4002.906094,35
4002.907093,52
4002.908073,46
4002.90907,9
4002.910041,-30
4002.91109,-45
4002.912111,-38
4002.913023,-29
4002.914041,-30
4002.915066,-40
4002.916032,-22
4002.917023,17
4002.917998,45
4002.918988,54
4002.920159,30
4002.920976,-21
4002.92197,-78
4002.922967,-101
4002.923983,-77
4002.924942,-24
4002.925955,6
4002.926976,-4
4002.928007,-50
4002.928932,-81
4002.92992,-81
4002.93093,-96
4002.931894,-108
4002.932904,-89
4002.933885,-62
4002.934955,-50
4002.936217,-48
4002.93688,-48
4002.937852,-40
4002.938861,-26
4002.93999,-21
4002.940867,-30
4002.94187,-48
4002.942817,-72
4002.943847,-59
4002.94487,-7
4002.945815,26
4002.946881,13
4002.947814,-8
4002.94882,-14
4002.949786,-42
4002.950942,-59
4002.95176,-75
4002.952757,-93
4002.953785,-101
4002.954736,-71
4002.955863,-16
4002.956718,18
4002.957773,5
4002.95873,-16
4002.959802,-20
4002.960767,-9
4002.961953,-14
4002.962715,-23
4002.96372,-27
4002.964741,-38
4002.965708,-33
4002.966662,1
4002.96769,7
4002.968654,-9
4002.969664,-17
4002.970682,-26
4002.971651,-11
4002.972777,25
4002.973639,71
4002.974638,84
4002.975615,73
4002.97665,56
4002.977571,5
4002.978629,-35
4002.979723,-30
4002.980614,-8
4002.981646,9
4002.982559,-9
4002.983615,-33
4002.984595,-28
4002.985574,-11
4002.986563,-8
4002.987554,-33
4002.988549,-58
4002.989559,-56
4002.990519,-44
4002.991514,-43
4002.992523,-44
4002.993506,-33
4002.994535,-14
4002.995509,1
4002.996519,1
4002.997487,12
4002.998452,14
4002.999574,2
4003.000468,-9
4003.001438,-19
4003.002453,-29
4003.003441,-42
4003.004414,-61
4003.005453,-42
4003.006643,34
4003.007412,105
4003.008437,103
4003.009401,54
4003.010406,21
4003.011478,12
4003.012406,-6
4003.013388,-7
4003.014422,3
4003.0154,9
4003.016377,18
4003.01743,21
4003.018414,20
4003.019532,24
4003.020372,33
4003.021341,23
4003.022337,-8
4003.023337,-6
4003.024347,28
4003.025333,59
4003.026406,52
4003.027339,28
4003.028443,4
4003.029665,-4
4003.030384,-6
4003.031306,-24
4003.0324,-44
4003.033278,-26
4003.03424,14
4003.035287,53
4003.036426,73
4003.037225,84
4003.038196,112
4003.039223,154
4003.040336,173
4003.041244,146
4003.042193,90
4003.043213,45
4003.044177,54
4003.045243,94
4003.046157,97
4003.047148,98
4003.048172,112
4003.04917,79
4003.050107,30
4003.051328,18
4003.052105,-6
4003.053193,-56
4003.054088,-85
4003.055138,-68
4003.056087,-34
4003.057096,-31
4003.058197,-55
4003.05913,-78
4003.060097,-69
4003.061055,-44
4003.063243,-26
4003.06352,-21
4003.064102,-12
4003.06517,-15
4003.066071,-13
4003.067026,5
4003.068054,21
4003.069027,16
4003.07001,-13
4003.071025,-19
4003.071976,-5
4003.073248,10
4003.074083,4
4003.074996,-30
4003.076125,-71
4003.076973,-98
4003.077964,-98
4003.07895,-78
4003.07995,-63
4003.080961,-45
4003.082095,-41
4003.08294,-42
4003.084363,-17
4003.084886,6
4003.085904,-2
4003.086902,-10
4003.08788,-18
4003.088846,-44
4003.089868,-47
4003.090859,-30
4003.091825,-20
4003.09295,-21
4003.094226,-30
4003.094828,-27
4003.096019,-23
4003.096854,-33
4003.097813,-48
4003.098886,-51
4003.099805,-43
4003.100789,-26
4003.10182,-17
4003.102801,-21
4003.103798,-21
4003.104771,-10
4003.105785,10
4003.106945,20
4003.10778,-13
4003.108737,-54
4003.109852,-58
4003.110738,-45
4003.111763,-36
4003.112752,-36
4003.11372,-37
4003.114839,-42
4003.115801,-33
4003.116697,-6
4003.117728,29
4003.118934,61
4003.119742,40
4003.120674,-9
4003.121671,-23
4003.122822,-20
4003.123705,-1
4003.124678,-2
4003.125651,-37
4003.12666,-70
4003.127648,-77
4003.128646,-51
4003.129629,-28
4003.130584,-25
4003.131604,-40
4003.13257,-34
4003.133562,-8
4003.134565,14
4003.135554,16
4003.136544,-7
4003.137557,-13
4003.138562,0
4003.139543,13
4003.140534,30
4003.141525,46
4003.142515,59
4003.143496,65
4003.144492,84
4003.145495,140
4003.146487,193
4003.1475,229
4003.148473,242
4003.149464,244
4003.150486,258
4003.151464,280
4003.152447,283
4003.153423,274
4003.154421,283
4003.155472,326
4003.156426,388
4003.157425,411
4003.158437,396
4003.159388,388
4003.1604,405
4003.161392,427
4003.162369,417
4003.163368,363
4003.164386,283
4003.165371,205
4003.166371,144
4003.167335,91
4003.168356,24
4003.169358,-67
4003.170331,-137
4003.171301,-185
4003.172354,-213
4003.173307,-247
4003.174414,-287
4003.175295,-317
4003.176357,-327
4003.177448,-319
4003.178332,-325
4003.17926,-332
4003.180261,-310
4003.181245,-268
4003.182261,-236
4003.18325,-208
4003.184239,-163
4003.18521,-115
4003.186256,-83
4003.187234,-72
4003.188195,-52
4003.189235,-35
4003.190225,-23
4003.191196,-5
4003.192198,-3
4003.193327,-29
4003.194143,-43
4003.195194,-26
4003.196225,-12
4003.197174,-11
4003.198145,-12
4003.199125,-16
4003.200136,-9
4003.201121,9
4003.202121,6
4003.203152,-36
4003.204094,-67
4003.205111,-81
4003.206095,-76
4003.20709,-40
4003.208071,5
4003.209063,23
4003.210085,26
4003.211289,25
4003.212097,43
4003.213321,38
4003.214146,-5
4003.215015,-9
4003.216033,35
4003.21698,54
4003.218038,50
4003.219006,60
4003.220001,49
4003.220972,-13
4003.221961,-56
4003.223,-69
4003.223936,-57
4003.224984,-13
4003.226019,27
4003.22694,50
4003.227904,67
4003.228913,74
4003.229921,72
4003.230894,66
4003.231895,71
4003.232926,84
4003.233954,113
4003.234863,139
4003.23596,116
4003.23688,36
4003.23787,-49
4003.238835,-81
4003.239844,-54
4003.241063,-9
4003.241875,14
4003.242987,1
4003.243899,-10
4003.244817,-15
4003.24579,-5
4003.2468,13
4003.247836,36
4003.24884,63
4003.249781,75
4003.250984,75
4003.252,69
4003.253577,43
4003.253777,30
4003.254882,35
4003.256689,54
4003.256791,77
4003.257707,91
4003.258745,93
4003.259845,76
4003.260721,55
4003.261774,44
4003.262703,58
4003.263737,92
4003.264693,102
4003.265695,91
4003.266862,66
4003.267659,60
4003.268648,70
4003.269633,75
4003.270646,47
4003.271626,24
4003.272609,28
4003.273601,44
4003.274643,58
4003.275618,53
4003.276665,33
4003.277721,23
4003.278646,29
4003.279576,37
4003.280599,22
4003.28158,-3
4003.282616,-26
4003.284404,-25
4003.285692,11
4003.28586,42
4003.286524,83
4003.287697,104
4003.288478,102
4003.289549,118
4003.290545,121
4003.291502,99
4003.292501,53
4003.293489,12
4003.294509,13
4003.295451,37
4003.296516,50
4003.297502,73
4003.298506,114
4003.299492,112
4003.300505,91
4003.301433,87
4003.302457,93
4003.303439,128
4003.304428,150
4003.3055,160
4003.306456,133
4003.307481,75
4003.308382,33
4003.309367,33
4003.310627,77
4003.311529,117
4003.312383,158
4003.313493,169
4003.314427,154
4003.315427,132
4003.316362,125
4003.317337,130
4003.318316,134
4003.31936,140
4003.320365,144
4003.321304,148
4003.322296,147
4003.323362,130
4003.324353,102
4003.325325,84
4003.326347,92
4003.327372,123
4003.328406,158
4003.329294,182
4003.330295,186
4003.331248,173
4003.332259,139
4003.333214,113
4003.334249,107
4003.335209,116
4003.336211,132
4003.337188,138
4003.338214,133
4003.339204,126
4003.340193,153
4003.341188,177
4003.342199,177
4003.343197,152
4003.344204,114
4003.345354,102
4003.346181,113
4003.347174,125
4003.348113,134
4003.349124,158
4003.350104,207
4003.35109,246
4003.352088,244
4003.353092,217
4003.354092,203
4003.355115,215
4003.356185,224
4003.357075,218
4003.358057,202
4003.359123,180
4003.360351,173
4003.363016,226
4003.363406,278
4003.363578,275
4003.364005,251
4003.365038,206
4003.365974,187
4003.367402,202
4003.368056,207
4003.369034,181
4003.370048,139
4003.371014,122
4003.371967,146
4003.373038,158
4003.373984,158
4003.375035,174
4003.376095,196
4003.377033,210
4003.378041,206
4003.379066,202
4003.379903,211
4003.380931,225
4003.381905,237
4003.382901,255
4003.38389,242
4003.384873,189
4003.385875,163
4003.386893,161
4003.387899,158
4003.388893,160
4003.39,169
4003.390849,172
4003.39182,151
4003.392858,139
4003.39384,134
4003.394851,133
4003.395833,127
4003.396824,113
4003.397844,107
4003.398851,96
4003.399847,90
4003.400936,69
4003.401791,40
4003.402815,12
4003.403752,-25
4003.404765,-46
4003.405774,-23
4003.406752,17
4003.407734,16
4003.408764,-12
4003.409742,-40
4003.410729,-63
4003.411783,-73
4003.412702,-78
4003.413696,-90
4003.414672,-94
4003.415675,-95
4003.416727,-90
4003.417659,-84
4003.41863,-90
4003.419658,-92
4003.420666,-81
4003.421692,-73
4003.422649,-97
4003.423626,-120
4003.424598,-126
4003.425606,-126
4003.426594,-107
4003.427571,-62
4003.428635,-19
4003.429602,-41
4003.430562,-126
4003.431613,-196
4003.432579,-193
4003.43356,-173
4003.434536,-164
4003.435538,-156
4003.436526,-154
4003.43754,-176
4003.43853,-186
4003.439506,-171
4003.44054,-143
4003.441492,-144
4003.442486,-171
4003.443501,-187
4003.444477,-182
4003.445517,-176
4003.446502,-180
4003.447467,-177
4003.448508,-174
4003.449447,-165
4003.450439,-159
4003.451418,-143
4003.452429,-107
4003.453461,-93
4003.45445,-110
4003.455441,-125
4003.456408,-127
4003.457407,-118
4003.458414,-115
4003.459371,-122
4003.460387,-133
4003.461348,-141
4003.462376,-129
4003.463328,-103
4003.464345,-94
4003.465347,-96
4003.466449,-92
4003.467323,-88
4003.468396,-88
4003.469293,-70
4003.470314,-41
4003.471344,-29
4003.472327,-60
4003.473383,-118
4003.474278,-166
4003.475244,-187
4003.476246,-177
4003.477238,-180
4003.478283,-177
4003.479246,-150
4003.480307,-127
4003.481264,-92
4003.482242,-75
4003.483284,-74
4003.484299,-76
4003.485188,-55
4003.486194,-48
4003.487383,-72
4003.488233,-93
4003.489176,-112
4003.490182,-115
4003.491151,-101
4003.492143,-106
4003.493168,-118
4003.49416,-117
4003.495224,-111
4003.496232,-97
4003.497223,-82
4003.498214,-79
4003.49912,-85
4003.500125,-71
4003.501086,-32
4003.502109,-12
4003.503131,-17
4003.504093,-33
4003.50509,-58
4003.506079,-53
4003.50708,-16
4003.508099,9
4003.509034,-11
4003.510076,-87
4003.511048,-119
4003.512052,-114
4003.513003,-125
4003.514036,-129
4003.515018,-109
4003.515999,-85
4003.516991,-61
4003.51799,-45
4003.5192,-57
4003.520002,-86
4003.52095,-109
4003.521991,-83
4003.522982,-37
4003.523956,-12
4003.524955,-10
4003.525949,-27
4003.526953,-40
4003.527955,-11
4003.528911,24
4003.530112,16
4003.530926,-24
4003.531913,-45
4003.533025,-36
4003.53391,-11
4003.534918,5
4003.535895,-19
4003.537195,-73
4003.537863,-112
4003.53885,-102
4003.539952,-80
4003.540827,-61
4003.5419,-54
4003.543133,-67
4003.543833,-78
4003.54609,-65
4003.546178,-54
4003.547142,-52
4003.547806,-31
4003.548784,-1
4003.549797,9
4003.550772,36
4003.551875,59
4003.552795,39
4003.553779,-18
4003.554737,-79
4003.555852,-134
4003.556715,-137
4003.557785,-81
4003.55875,-42
4003.55988,-37
4003.560724,-45
4003.561879,-60
4003.562738,-68
4003.563748,-58
4003.564692,-41
4003.565772,-24
4003.566654,5
4003.567645,36
4003.568694,37
4003.569771,18
4003.570624,-10
4003.571649,-33
4003.572625,-39
4003.573623,-20
4003.574892,4
4003.575632,-8
4003.57665,-41
4003.577604,-47
4003.578604,-18
4003.579598,20
4003.580572,38
4003.581571,8
4003.582573,-69
4003.583576,-89
4003.58455,-45
4003.585819,-10
4003.586583,-12
4003.587572,-22
4003.588549,-17
4003.589543,-8
4003.590586,-7
4003.591488,-13
4003.592508,-21
4003.593497,-14
4003.594464,-2
4003.595498,-16
4003.596512,-33
4003.597458,-29
4003.598472,-29
4003.599636,-26
4003.600522,-21
4003.601476,-17
4003.602557,-28
4003.603422,-43
4003.604469,-64
4003.605415,-88
4003.606471,-78
4003.607392,-43
4003.608403,5
4003.609941,3
4003.61038,-15
4003.611434,13
4003.612393,49
4003.613396,47
4003.614318,12
4003.615319,-50
4003.616384,-56
4003.617346,-15
4003.618406,25
4003.619321,41
4003.620326,56
4003.621313,82
4003.622296,57
4003.623329,7
4003.625365,-14
4003.625402,-34
4003.626361,-70
4003.627361,-87
4003.628644,-62
4003.629322,-9
4003.630256,43
4003.631599,60
4003.632245,32
4003.633235,5
4003.634244,-6
4003.635237,-11
4003.636194,-2
4003.637218,2
4003.638224,-10
4003.6392,-31
4003.640181,-40
4003.641225,-53
4003.642228,-65
4003.643201,-57
4003.644142,-34
4003.645164,-19
4003.646174,-17
4003.647137,-22
4003.648132,-47
4003.649099,-82
4003.650115,-76
4003.651093,-49
4003.652126,-24
4003.653112,6
4003.654092,42
4003.655065,65
4003.656128,88
4003.657054,105
4003.658079,97
4003.659039,38
4003.66003,-29
4003.661028,-54
4003.66204,-71
4003.66303,-79
4003.664038,-81
4003.665303,-62
4003.66606,-25
4003.667036,11
4003.667999,27
4003.668981,25
4003.669968,22
4003.671017,16
4003.672003,11
4003.672974,28
4003.673963,32
4003.675213,16
4003.675925,16
4003.676934,22
4003.677919,35
4003.678961,41
4003.67997,32
4003.680916,12
4003.681906,7
4003.682889,30
4003.683926,48
4003.684904,45
4003.685946,36
4003.686851,18
4003.687865,-18
4003.688877,-45
4003.689852,-55
4003.690935,-52
4003.691843,-48
4003.69286,-36
4003.693874,-12
4003.694861,-13
4003.695816,-27
4003.696867,-2
4003.69873,26
4003.698807,14
4003.699798,12
4003.700795,30
4003.701767,31
4003.70272,28
4003.703753,27
4003.704761,29
4003.705745,22
4003.706754,13
4003.707738,12
4003.708711,12
4003.709696,-14
4003.726262,-30
4003.726275,-19
4003.726289,9
4003.726303,21
4003.726317,23
4003.72633,26
4003.726344,33
4003.726358,51
4003.726372,56
4003.726386,31
4003.726399,5
4003.726413,-4
4003.726427,2
4003.726441,3
4003.726454,-4
4003.726468,-14
4003.726599,-24
4003.727608,-18
4003.72863,-5
4003.72958,15
4003.730545,33
4003.731523,33
4003.73257,23
4003.733564,16
4003.734578,28
4003.735562,48
4003.736558,70
4003.737551,91
4003.738523,85
4003.73949,61
4003.740521,32
4003.74149,-9
4003.742499,-65
4003.743532,-91
4003.74455,-81
4003.745582,-70
4003.746517,-35
4003.74756,35
4003.748693,89
4003.74946,84
4003.750436,78
4003.751393,77
4003.752392,75
4003.753461,49
4003.754397,-23
4003.755387,-73
4003.756397,-51
4003.757379,-10
4003.758376,-13
4003.759382,-26
4003.76049,-16
4003.76138,26
4003.762349,36
4003.76336,35
4003.764328,22
4003.765329,28
4003.766326,54
4003.767303,81
4003.768363,84
4003.769323,58
4003.770479,50
4003.771268,40
4003.772311,8
4003.773282,-16
4003.774288,2
4003.775253,19
4003.776263,11
4003.777252,-7
4003.77825,-1
4003.77926,32
4003.780281,72
4003.78122,100
4003.782247,100
4003.783218,82
4003.784217,59
4003.785194,43
4003.786201,39
4003.787254,24
4003.788179,-20
4003.789171,-48
4003.790168,-32
4003.791138,-8
4003.7924,0
4003.793167,-26
4003.794157,-39
4003.795156,3
4003.7961,38
4003.79715,42
4003.798151,25
4003.799132,12
4003.80014,11
4003.80112,18
4003.802103,14
4003.803182,10
4003.80409,7
4003.805033,8
4003.806063,4
4003.807053,-4
4003.808104,-20
4003.809032,-9
4003.810044,28
4003.811088,40
4003.812034,37
4003.81302,34
4003.814158,39
4003.81513,33
4003.816015,38
4003.816987,60
4003.818016,91
4003.819005,96
4003.819975,75
4003.82098,47
4003.821931,24
4003.822948,20
4003.82415,58
4003.824944,115
4003.825918,104
4003.826908,50
4003.827899,7
4003.828864,16
4003.829904,30
4003.830895,22
4003.831895,4
4003.832882,-22
4003.833854,-25
4003.834855,-4
4003.835847,6
4003.836861,18
4003.837949,19
4003.838858,-17
4003.839858,-52
4003.84086,-63
4003.84183,-77
4003.842822,-60
4003.843819,-17
4003.844822,29
4003.845788,68
4003.846798,75
4003.847817,72
4003.848812,77
4003.849767,80
4003.850773,90
4003.851751,99
4003.852719,97
4003.853745,82
4003.854732,61
4003.855738,62
4003.856737,47
4003.857718,16
4003.858771,-20
4003.859828,-44
4003.860713,-59
4003.861771,-50
4003.862711,-38
4003.86364,-18
4003.864674,21
4003.865789,50
4003.866684,72
4003.867699,88
4003.868672,69
4003.869777,47
4003.870655,45
4003.871625,58
4003.872664,71
4003.873673,76
4003.874674,65
4003.875608,39
4003.876666,12
4003.877572,-6
4003.878608,5
4003.879601,33
4003.880606,47
4003.881541,29
4003.882574,12
4003.883558,8
4003.884556,14
4003.885506,17
4003.886522,21
4003.88756,42
4003.888515,58
4003.889521,58
4003.890725,49
4003.891507,41
4003.892513,37
4003.893561,39
4003.894522,46
4003.895513,37
4003.896486,0
4003.897475,-39
4003.898504,-58
4003.899471,-57
4003.900433,-27
4003.90149,6
4003.902437,15
4003.903432,24
4003.904451,41
4003.905444,67
4003.906437,75
4003.907403,81
4003.908381,60
4003.90948,15
4003.910444,-12
4003.911424,-16
4003.91249,-14
4003.913367,-9
4003.914357,-8
4003.915459,-18
4003.916403,-14
4003.917435,6
4003.918548,24
4003.919333,32
4003.920308,14
4003.921357,5
4003.922262,20
4003.923303,47
4003.924373,72
4003.925339,93
4003.926497,96
4003.92736,100
4003.928317,87
4003.929251,55
4003.930271,54
4003.931333,66
4003.932242,38
4003.933227,0
4003.934223,10
4003.93523,51
4003.936241,97
4003.937202,111
4003.938223,101
4003.939241,83
4003.940189,81
4003.941187,73
4003.942193,51
4003.943191,25
4003.944148,9
4003.945209,2
4003.946206,2
4003.947192,12
4003.948126,14
4003.949122,7
4003.950103,15
4003.95111,40
4003.952087,41
4003.953066,33
4003.954061,20
4003.955098,14
4003.956061,32
4003.957062,43
4003.958042,35
4003.95907,48
4003.960053,68
4003.961029,86
4003.962063,89
4003.96304,116
4003.964041,129
4003.965022,87
4003.966002,33
4003.966993,16
4003.967983,58
4003.968979,129
4003.969988,171
4003.970941,173
4003.971941,153
4003.97312,149
4003.973972,150
4003.974944,143
4003.975952,153
4003.977036,132
4003.978051,94
4003.978912,61
4003.980011,40
4003.980923,55
4003.981894,54
4003.98302,29
4003.983885,47
4003.984913,97
4003.98593,137
4003.986882,147
4003.988118,112
4003.988884,75
4003.989913,68
4003.990845,73
4003.991861,61
4003.992845,32
4003.993812,9
4003.994876,20
4003.995784,72
4003.996808,112
4003.997818,122
4003.998774,89
4003.999788,46
4004.000771,32
4004.001836,25
4004.002775,21
4004.003762,32
4004.004753,38
4004.005732,29
4004.006731,13
4004.007713,-7
4004.00871,-32
4004.009943,-60
4004.010695,-63
4004.011702,-28
4004.012734,-2
4004.01368,-7
4004.01467,-22
4004.015648,-20
4004.01665,12
4004.017644,33
4004.018646,32
4004.019628,22
4004.020636,14
4004.021624,2
4004.022647,-26
4004.023733,-46
4004.024635,-48
4004.025598,-48
4004.026626,-66
4004.027572,-77
4004.028612,-73
4004.029544,-54
4004.030591,-46
4004.031871,-48
4004.032663,-53
4004.03354,-49
4004.034527,-22
4004.035559,9
4004.036543,37
4004.037525,37
4004.038564,8
4004.039525,-17
4004.040541,-21
4004.041505,-27
4004.042591,-50
4004.043493,-58
4004.04446,-45
4004.045466,-22
4004.046477,-4
4004.047467,-5
4004.048419,-15
4004.049439,-23
4004.050431,-22
4004.051432,-6
4004.05241,-3
4004.053797,14
4004.054462,42
4004.05541,42
4004.0564,35
4004.057383,41
4004.058356,46
4004.059345,12
4004.060369,-26
4004.061406,-40
4004.062317,-31
4004.063333,-21
4004.064373,-6
4004.065436,14
4004.066347,3
4004.067328,-10
4004.068401,-1
4004.069453,2
4004.070334,-14
4004.071397,-6
4004.072294,11
4004.073273,5
4004.074262,-8
4004.07524,-18
4004.076906,-18
4004.077315,-17
4004.078344,-4
4004.079262,37
4004.080229,68
4004.081228,74
4004.082232,79
4004.083241,91
4004.084172,99
4004.085414,112
4004.08625,106
4004.087421,112
4004.088202,143
4004.089245,199
4004.090236,238
4004.091189,240
4004.092209,236
4004.093189,234
4004.094124,238
4004.095096,247
4004.096279,270
4004.097136,289
4004.098095,326
4004.099125,346
4004.100124,356
4004.101094,385
4004.102203,428
4004.103061,449
4004.104083,427
4004.105041,358
4004.106126,284
4004.107064,220
4004.108239,182
4004.109031,135
4004.110045,56
4004.111034,-25
4004.111974,-95
4004.113038,-146
4004.11404,-176
4004.11501,-218
4004.115989,-269
4004.11698,-283
4004.117977,-267
4004.118976,-255
4004.119935,-259
4004.120938,-260
4004.121937,-246
4004.122971,-213
4004.12405,-174
4004.124996,-159
4004.125914,-181
4004.126899,-212
4004.127894,-205
4004.128898,-177
4004.129996,-145
4004.131211,-102
4004.131889,-72
4004.132895,-55
4004.133875,-42
4004.134837,-15
4004.135854,10
4004.136858,13
4004.137886,15
4004.138853,22
4004.139798,23
4004.140827,40
4004.141798,49
4004.142973,22
4004.143778,25
4004.144834,46
4004.145788,18
4004.146895,-7
4004.147815,-13
4004.148786,-7
4004.149778,3
4004.150723,20
4004.151861,17
4004.152742,1
4004.153725,-4
4004.154736,2
4004.155791,14
4004.156927,33
4004.157909,25
4004.158679,22
4004.159792,17
4004.160681,6
4004.16181,16
4004.162703,52
4004.163645,77
4004.164671,62
4004.165643,28
4004.16665,-4
4004.16765,-5
4004.168609,12
4004.169612,32
4004.1706,58
4004.17159,61
4004.172626,23
4004.173576,-3
4004.1746,-20
4004.175603,-5
4004.176588,34
4004.177562,51
4004.178563,75
4004.179548,94
4004.18059,71
4004.181578,45
4004.182609,29
4004.183532,6
4004.184508,-33
4004.185588,-36
4004.186518,11
4004.187578,52
4004.1885,64
4004.189518,52
4004.190579,44
4004.191478,35
4004.192472,23
4004.193457,4
4004.19524,-2
4004.195468,22
4004.196466,40
4004.197449,40
4004.19843,42
4004.199415,46
4004.20043,85
4004.201472,125
4004.202419,146
4004.203406,141
4004.204364,109
4004.205424,74
4004.206395,36
4004.207447,16
4004.208353,14
4004.209438,25
4004.21033,52
4004.211434,98
4004.212366,131
4004.21331,107
4004.214329,79
4004.215324,79
4004.21629,92
4004.217554,80
4004.218378,55
4004.219294,48
4004.220247,39
4004.221333,34
4004.222299,59
4004.223274,91
4004.22422,76
4004.225273,36
4004.226346,29
4004.227306,39
4004.228371,52
4004.229244,58
4004.230334,72
4004.231208,66
4004.232187,46
4004.233204,46
4004.234198,75
4004.235214,105
4004.236188,106
4004.237201,88
4004.238174,87
4004.239364,112
4004.240126,122
4004.241111,97
4004.242126,75
4004.243197,83
4004.244106,123
4004.245123,156
4004.246104,143
4004.247081,103
4004.248091,79
4004.249068,52
4004.250285,31
4004.251058,16
4004.252083,38
4004.253061,80
4004.254072,104
4004.255278,118
4004.256002,107
4004.257042,86
4004.258284,83
4004.259257,102
4004.260504,101
4004.261042,102
4004.26207,119
4004.26308,132
4004.264038,127
4004.265015,88
4004.266009,69
4004.266982,87
4004.267933,124
4004.269,162
4004.270216,190
4004.270989,197
4004.272223,186
4004.272963,165
4004.273895,161
4004.274917,179
4004.27593,191
4004.276935,190
4004.277987,201
4004.278919,190
4004.27986,149
4004.280855,116
4004.281853,100
4004.282845,76
4004.283866,67
4004.284877,106
4004.285823,159
4004.286821,196
4004.287838,202
4004.288838,180
4004.289877,200
4004.291253,232
4004.294315,216
4004.294331,161
4004.294348,125
4004.294764,136
4004.295794,170
4004.29675,196
4004.297739,185
4004.298712,168
4004.299756,150
4004.300741,147
4004.301699,172
4004.302729,207
4004.303703,226
4004.304732,226
4004.306062,205
4004.306709,189
4004.307673,192
4004.308873,200
4004.309723,202
4004.310641,185
4004.311665,204
4004.312615,230
4004.313673,238
4004.31464,212
4004.315662,172
4004.316807,181
4004.317603,231
4004.318622,254
4004.31965,243
4004.320602,198
4004.321588,165
4004.3226,172
4004.323593,170
4004.324604,149
4004.325606,116
4004.326648,81
4004.327569,84
4004.328556,129
4004.329544,170
4004.330548,187
4004.33152,181
4004.332531,174
4004.333496,176
4004.334534,187
4004.335469,189
4004.336539,186
4004.337563,193
4004.338523,201
4004.339513,176
4004.340481,134
4004.341446,102
4004.342442,79
4004.343472,63
4004.344422,69
4004.345455,67
4004.346455,39
4004.347446,15
4004.348463,-7
4004.349402,-29
4004.350407,-48
4004.351396,-48
4004.352391,-13
4004.353389,33
4004.354381,61
4004.355369,58
4004.356351,37
4004.357379,41
4004.358351,52
4004.359334,18
4004.360312,-37
4004.361331,-105
4004.362342,-141
4004.363337,-148
4004.364324,-145
4004.365292,-125
4004.366362,-109
4004.367302,-94
4004.368358,-75
4004.369431,-64
4004.370359,-76
4004.371363,-84
4004.37227,-92
4004.373281,-118
4004.374237,-141
4004.37529,-166
4004.376251,-194
4004.377254,-217
4004.378297,-203
4004.37919,-192
4004.380213,-205
4004.381196,-202
4004.382179,-186
4004.383224,-176
4004.384222,-164
4004.385161,-146
4004.386207,-140
4004.387169,-154
4004.388126,-182
4004.38913,-206
4004.390106,-205
4004.391124,-179
4004.392136,-167
4004.393117,-176
4004.394101,-135
4004.39511,-83
4004.396095,-84
4004.397098,-107
4004.398083,-143
4004.399071,-179
4004.400065,-189
4004.401065,-180
4004.402081,-154
4004.403078,-139
4004.404175,-150
4004.405017,-160
4004.406471,-176
4004.407011,-178
4004.408052,-163
4004.40901,-154
4004.410062,-152
4004.411001,-158
4004.411998,-149
4004.41296,-130
4004.413941,-124
4004.414945,-124
4004.416008,-138
4004.41694,-157
4004.417958,-177
4004.418911,-189
4004.419909,-161
4004.420942,-130
4004.421901,-122
4004.422944,-118
4004.423912,-105
4004.424902,-88
4004.425898,-92
4004.426915,-82
4004.427919,-45
4004.428868,-28
4004.429844,-55
4004.431226,-62
4004.431833,-64
4004.432898,-110
4004.433813,-152
4004.434828,-144
4004.43579,-113
4004.436826,-97
4004.437843,-97
4004.438804,-110
4004.439841,-91
4004.440823,-58
4004.44182,-51
4004.442766,-92
4004.443768,-121
4004.444817,-128
4004.445729,-158
4004.446721,-176
4004.447745,-149
4004.448728,-101
4004.449729,-48
4004.450891,-5
4004.4518,13
4004.452689,1
4004.453746,-21
4004.454748,-32
4004.455685,-61
4004.456661,-80
4004.457633,-67
4004.458651,-50
4004.459677,-42
4004.460663,-51
4004.461646,-62
4004.462602,-82
4004.463692,-116
4004.46465,-134
4004.465664,-137
4004.46661,-123
4004.46761,-82
4004.468633,-41
4004.469626,-19
4004.470668,-22
4004.471583,-38
4004.472566,-59
4004.473549,-81
4004.474542,-85
4004.475578,-64
4004.476512,-43
4004.477911,-25
4004.478576,-2
4004.47952,17
4004.480568,7
4004.481498,-14
4004.482516,-23
4004.483467,-7
4004.484529,14
4004.485468,-16
4004.486533,-55
4004.487549,-73
4004.488775,-60
4004.489591,-55
4004.490462,-78
4004.4915,-112
4004.492531,-132
4004.493467,-132
4004.49455,-103
4004.495608,-66
4004.496599,-25
4004.497422,8
4004.498418,4
4004.499534,-26
4004.500393,-53
4004.501381,-59
4004.502387,-67
4004.503363,-74
4004.504335,-73
4004.505345,-78
4004.506452,-64
4004.507394,-40
4004.508405,-21
4004.509311,-16
4004.510458,-6
4004.511348,9
4004.512307,6
4004.513444,-17
4004.51426,-59
4004.515265,-86
4004.516293,-86
4004.517414,-78
4004.518273,-62
4004.519291,-35
4004.520256,-26
4004.521268,-39
4004.522275,-51
4004.523213,-50
4004.524221,-32
4004.525241,-9
4004.52646,-15
4004.52727,-40
4004.528195,-57
4004.529178,-63
4004.5302,-56
4004.531156,-48
4004.532161,-43
4004.533142,-39
4004.53414,-30
4004.535108,-12
4004.536116,0
4004.537128,16
4004.538126,36
4004.53913,56
4004.540173,53
4004.541086,33
4004.542101,-14
4004.543115,-52
4004.544067,-66
4004.545095,-63
4004.546048,-62
4004.547088,-56
4004.548104,-36
4004.549033,-28
4004.550022,-33
4004.551045,-9
4004.552031,35
4004.553013,67
4004.554783,68
4004.555098,47
4004.556346,18
4004.557723,-2
4004.558005,-17
4004.559045,-44
4004.560002,-56
4004.560955,-31
4004.562025,7
4004.562941,22
4004.563972,9
4004.564954,-42
4004.566048,-92
4004.566924,-86
4004.567937,-46
4004.568921,-2
4004.569911,23
4004.570876,-6
4004.571894,-55
4004.572915,-91
4004.573892,-101
4004.574862,-70
4004.575841,-38
4004.576868,-29
4004.577922,-21
4004.578846,1
4004.579836,-4
4004.580822,-38
4004.581797,-70
4004.582815,-73
4004.583807,-37
4004.584825,-4
4004.585824,10
4004.586818,16
4004.58783,17
4004.588797,30
4004.589806,31
4004.590807,20
4004.591738,3
4004.592737,-24
4004.593852,-55
4004.594787,-72
4004.595787,-64
4004.596747,-36
4004.597763,7
4004.598739,15
4004.599729,-27
4004.600689,-42
4004.60169,-19
4004.602707,4
4004.603686,20
4004.604628,30
4004.605696,29
4004.606821,17
4004.607725,-11
4004.608649,-36
4004.609735,-37
4004.610707,-27
4004.61165,-12
4004.612605,0
4004.613664,-19
4004.614757,-32
4004.61565,-40
4004.616612,-55
4004.617612,-50
4004.618599,-9
4004.619608,13
4004.620574,3
4004.621596,-10
4004.622576,-18
4004.623648,-29
4004.624543,-43
4004.625627,-57
4004.626569,-51
4004.627522,-23
4004.628517,3
4004.629529,20
4004.630573,15
4004.631513,-1
4004.632617,-3
4004.635088,-3
4004.636617,-1
4004.636643,-3
4004.636753,-28
4004.637486,-59
4004.638473,-64
4004.639519,-78
4004.640477,-50
4004.641504,-9
4004.642507,-13
4004.643504,-22
4004.644502,-28
4004.645499,-48
4004.646497,-75
4004.647494,-86
4004.648492,-78
4004.649489,-49
4004.650487,-5
4004.651484,15
4004.652482,6
4004.653479,13
4004.654477,17
4004.655474,1
4004.656472,-35
4004.657469,-56
4004.658696,-60
4004.659326,-76
4004.660338,-75
4004.661276,-28
4004.662328,27
4004.663276,50
4004.664311,54
4004.6653,57
4004.666293,49
4004.667287,61
4004.668262,60
4004.669276,49
4004.670253,38
4004.671284,-2
4004.672328,-34
4004.673277,-50
4004.674228,-61
4004.675228,-58
4004.676328,-51
4004.6772,-35
4004.678207,-18
4004.679216,-27
4004.680409,-49
4004.681173,-73
4004.682187,-83
4004.683172,-64
4004.684145,-29
4004.685207,3
4004.686156,25
4004.687141,29
4004.688123,16
4004.689106,16
4004.690123,26
4004.691427,39
4004.692154,15
4004.693333,-49
4004.694092,-81
4004.695136,-63
4004.696162,-41
4004.697068,-37
4004.698093,-40
4004.699033,-54
4004.700127,-45
4004.701048,16
4004.702038,66
4004.703029,74
4004.704042,60
4004.705016,45
4004.706026,48
4004.706981,37
4004.707998,13
4004.708976,-10
4004.709994,-39
4004.710985,-65
4004.711984,-65
4004.712939,-45
4004.713958,-23
4004.714924,-13
4004.715912,-15
4004.716966,-18
4004.717995,-17
4004.718956,-13
4004.719905,-4
4004.720907,4
4004.721894,-6
4004.722922,-17
4004.723875,-8
4004.72485,3
4004.725969,-15
4004.72695,-36
4004.727931,-37
4004.728839,-31
4004.729851,-45
4004.730822,-71
4004.731821,-78
4004.732805,-67
4004.733814,-28
4004.734872,40
4004.735883,88
4004.736896,91
4004.737913,79
4004.738816,51
4004.739755,8
4004.740724,-15
4004.741747,-6
4004.742785,12
4004.743739,9
4004.744743,-20
4004.745719,-49
4004.746756,-61
4004.747771,-60
4004.748705,-56
4004.74969,-33
4004.750681,-13
4004.75173,-35
4004.752654,-43
4004.753679,-28
4004.754706,-4
4004.755695,-1
4004.756648,0
4004.757691,4
4004.758668,16
4004.759774,9
4004.760663,-10
4004.761618,-13
4004.762609,-9
4004.76365,1
4004.764642,10
4004.765613,19
4004.766573,16
4004.767589,10
4004.768861,-2
4004.769578,-8
4004.770587,-11
4004.771573,-3
4004.772574,15
4004.773531,13
4004.774567,-3
4004.775541,-14
4004.776548,-13
4004.777552,-3
4004.778522,11
4004.779534,18
4004.780501,16
4004.781542,23
4004.782516,12
4004.783528,-8
4004.784497,-7
4004.785451,11
4004.78651,20
4004.787464,30
4004.788519,54
4004.78946,58
4004.790463,43
4004.791629,30
4004.792438,-2
4004.793404,-29
4004.794407,-9
4004.795421,5
4004.796376,-15
4004.797404,-35
4004.798358,-38
4004.799453,-60
4004.800429,-76
4004.801364,-43
4004.802358,16
4004.803356,52
4004.804348,45
4004.805348,18
4004.806306,-7
4004.807332,5
4004.808334,31
4004.809353,49
4004.81035,34
4004.81139,-13
4004.812286,-32
4004.813309,-25
4004.814299,-37
4004.815272,-44
4004.816243,-22
4004.817237,-21
4004.818238,-24
4004.819274,-11
4004.82026,1
4004.82121,3
4004.822238,-6
4004.823202,-13
4004.824212,-4
4004.825189,-1
4004.826174,-2
4004.827308,-3
4004.8282,-3
4004.829176,-26
4004.830162,-58
4004.83116,-84
4004.832181,-55
4004.833168,-22
4004.834168,-4
4004.83513,12
4004.836215,16
4004.837108,17
4004.838111,19
4004.839097,15
4004.840062,1
4004.841148,-13
4004.842078,-27
4004.843251,-31
4004.84408,-16
4004.845067,6
4004.846091,4
4004.84717,-18
4004.848173,-24
4004.849053,-19
4004.850027,-24
4004.851135,-16
4004.852022,16
4004.853032,28
4004.854023,38
4004.85506,46
4004.856034,43
4004.856998,52
4004.857992,73
4004.858966,65
4004.860135,35
4004.861119,6
4004.861978,-3
4004.86301,11
4004.864023,41
4004.864971,47
4004.866014,37
4004.866962,36
4004.867927,57
4004.868978,54
4004.87,19
4004.871206,-22
4004.871904,-57
4004.872941,-76
4004.873887,-63
4004.874958,-41
4004.875878,-34
4004.876916,-36
4004.877915,-45
4004.878825,-47
4004.8798,-27
4004.880926,-5
4004.882217,19
4004.882847,53
4004.883821,80
4004.884798,104
4004.885851,93
4004.886802,31
4004.887785,-28
4004.888829,-70
4004.889752,-87
4004.890744,-75
4004.89173,-49
4004.892765,-20
4004.893741,-20
4004.894747,-39
4004.895712,-36
4004.896714,-19
4004.897693,-6
4004.898716,17
4004.899741,37
4004.900692,55
4004.901657,74
4004.902665,96
4004.903775,82
4004.90467,41
4004.905653,5
4004.906649,-8
4004.907656,3
4004.908621,11
4004.909727,3
4004.910678,-8
4004.911583,-2
4004.912699,23
4004.913625,19
4004.914603,-10
4004.915571,-8
4004.91658,11
4004.917609,63
4004.918569,144
4004.919582,178
4004.92057,135
4004.921613,78
4004.922556,57
4004.923519,54
4004.924524,44
4004.925518,49
4004.926534,50
4004.927559,47
4004.928669,59
4004.929504,73
4004.930491,63
4004.931461,46
4004.932476,47
4004.93346,77
4004.93447,105
4004.935424,119
4004.936439,104
4004.937434,75
4004.938435,68
4004.939449,83
4004.940529,122
4004.94139,156
4004.942475,104
4004.943413,25
4004.944417,-40
4004.945473,-47
4004.946429,-24
4004.947385,8
4004.94837,26
4004.949364,59
4004.95039,98
4004.952091,97
4004.952384,85
4004.953316,57
4004.954325,12
4004.955342,-11
4004.95631,18
4004.957304,58
4004.958316,65
4004.959336,8
4004.960443,-41
4004.961323,-47
4004.962888,-45
4004.963274,-62
4004.964238,-82
4004.965232,-92
4004.96624,-89
4004.967249,-75
4004.96823,-42
4004.969231,-34
4004.970212,-40
4004.971234,-33
4004.972481,-33
4004.97317,-43
4004.974188,-57
4004.975177,-65
4004.976247,-78
4004.97714,-88
4004.978147,-65
4004.97913,-26
4004.98013,19
4004.981128,37
4004.982123,6
4004.983104,-60
4004.984092,-113
4004.985198,-113
4004.986195,-80
4004.987128,-55
4004.98812,-33
4004.989187,-28
4004.990182,-29
4004.991072,-27
4004.992172,-30
4004.993137,-48
4004.99406,-63
4004.995132,-64
4004.996049,-46
4004.997097,-14
4004.998015,5
4004.999026,2
4005.000004,3
4005.001062,19
4005.002013,25
4005.003006,4
4005.003961,-23
4005.00499,-32
4005.006241,-34
4005.006972,-16
4005.008126,5
4005.00895,-26
4005.010022,-82
4005.010997,-99
4005.011943,-85
4005.012937,-64
4005.013904,-48
4005.014918,-55
4005.015983,-48
4005.016958,-42
4005.017887,-40
4005.018878,-46
4005.019851,-52
4005.020873,-52
4005.021856,-55
4005.02284,-58
4005.023867,-47
4005.024848,-21
4005.025925,-6
4005.026848,7
4005.027978,5
4005.028781,-6
4005.029783,-2
4005.030776,-28
4005.031782,-63
4005.032767,-68
4005.033752,-37
4005.034801,28
4005.035741,89
4005.036748,93
4005.037833,65
4005.03875,33
4005.039945,19
4005.040734,18
4005.041742,6
4005.042702,-17
4005.043688,-33
4005.044692,-17
4005.04569,24
4005.046678,74
4005.04773,97
4005.048669,112
4005.049689,148
4005.050777,185
4005.051688,226
4005.05268,277
4005.053766,332
4005.054726,396
4005.055782,431
4005.05663,438
4005.057715,439
4005.058649,445
4005.059805,450
4005.0607,436
4005.061673,409
4005.062607,366
4005.063573,307
4005.064665,230
4005.06561,136
4005.066669,65
4005.067547,29
4005.06852,-17
4005.069527,-83
4005.070671,-145
4005.071527,-212
4005.072691,-265
4005.073548,-278
4005.074513,-299
4005.075509,-331
4005.0765,-345
4005.077483,-339
4005.078487,-312
4005.079494,-259
4005.080505,-215
4005.081558,-198
4005.082478,-183
4005.08386,-169
4005.084535,-147
4005.085621,-139
4005.086566,-144
4005.087398,-146
4005.088458,-126
4005.089442,-92
4005.090419,-84
4005.091432,-76
4005.092385,-59
4005.093377,-64
4005.094422,-86
4005.095389,-88
4005.096468,-83
4005.097423,-65
4005.098343,-38
4005.099375,-13
4005.100412,-13
4005.101455,-20
4005.102325,-8
4005.103362,21
4005.104362,41
4005.105319,39
4005.106324,17
4005.10739,-3
4005.108331,-5
4005.109295,-9
4005.110328,-8
4005.111304,4
4005.127369,17
4005.127375,7
4005.127382,-12
4005.127388,-12
4005.127395,-13
4005.127402,-17
4005.127408,-14
4005.127415,-6
4005.127421,28
4005.127428,62
4005.127435,84
4005.127441,90
4005.127448,80
4005.127454,36
4005.127461,-33
4005.127468,-77
4005.128211,-58
4005.129337,-15
4005.130138,-4
4005.131241,-16
4005.132169,-29
4005.133141,-30
4005.134112,-9
4005.135215,-3
4005.136091,-2
4005.137088,19
4005.13843,54
4005.139152,75
4005.140109,57
4005.141399,45
4005.14207,34
4005.143134,-7
4005.144049,-5
4005.145021,5
4005.146098,-8
4005.147004,-19
4005.148007,-24
4005.149015,-13
4005.150022,6
4005.150992,21
4005.152003,33
4005.15299,60
4005.153993,83
4005.154968,91
4005.155958,89
4005.156945,75
4005.157936,54
4005.15896,46
4005.159948,45
4005.161006,51
4005.161921,44
4005.16295,44
4005.163936,46
4005.164915,43
4005.165903,41
4005.166887,25
4005.167865,29
4005.168863,48
4005.169937,41
4005.170992,29
4005.171909,35
4005.172835,33
4005.173854,13
4005.174841,-18
4005.175853,-47
4005.17682,-60
4005.17797,-47
4005.178841,-31
4005.179813,-26
4005.18079,-3
4005.181781,38
4005.182784,68
4005.183791,80
4005.184788,84
4005.185775,94
4005.186712,77
4005.187749,25
4005.188718,4
4005.189732,54
4005.190739,105
4005.191734,107
4005.192726,116
4005.193716,108
4005.194821,69
4005.195709,52
4005.196688,62
4005.197703,62
4005.198676,62
4005.199696,54
4005.200661,44
4005.20166,50
4005.202656,65
4005.203646,71
4005.20463,53
4005.205701,45
4005.20666,55
4005.207622,74
4005.208638,86
4005.209744,70
4005.2106,46
4005.211583,35
4005.212584,58
4005.213572,100
4005.214594,142
4005.215589,173
4005.216681,171
4005.217586,145
4005.218574,138
4005.219577,143
4005.220522,133
4005.221543,123
4005.222561,102
4005.223511,92
4005.224502,98
4005.225592,102
4005.226623,115
4005.227483,117
4005.228653,106
4005.229476,105
4005.230488,113
4005.2315,122
4005.232475,129
4005.233454,126
4005.234446,144
4005.235469,152
4005.236425,110
4005.237501,68
4005.238419,45
4005.239641,69
4005.240428,112
4005.2414,148
4005.242402,164
4005.243468,162
4005.244452,155
4005.245372,166
4005.246368,180
4005.247404,179
4005.24836,169
4005.249333,167
4005.250382,175
4005.251317,170
4005.252341,158
4005.253348,156
4005.254437,144
4005.255304,114
4005.256336,111
4005.257295,128
4005.258314,144
4005.259329,129
4005.260302,117
4005.261282,126
4005.262261,151
4005.263257,190
4005.264309,205
4005.265331,205
4005.266417,209
4005.267255,211
4005.268211,266
4005.269303,344
4005.270277,361
4005.271209,315
4005.272218,255
4005.273775,228
4005.274967,208
4005.275757,179
4005.276188,151
4005.277191,136
4005.278191,146
4005.279181,152
4005.280179,130
4005.281121,143
4005.28214,157
4005.283167,152
4005.284153,145
4005.285103,151
4005.286136,167
4005.287153,177
4005.288126,188
4005.289113,185
4005.290099,166
4005.291105,153
4005.29209,122
4005.293179,63
4005.294194,29
4005.295136,42
4005.296083,80
4005.297082,86
4005.298022,65
4005.299035,54
4005.300059,67
4005.301029,97
4005.301993,114
4005.303004,103
4005.304035,88
4005.304995,75
4005.307861,46
4005.307871,23
4005.307967,23
4005.308944,7
4005.309968,-30
4005.310976,-49
4005.311958,-46
4005.312938,-40
4005.313906,-50
4005.314933,-76
4005.315967,-126
4005.317244,-168
4005.317893,-160
4005.318909,-139
4005.319953,-145
4005.320866,-151
4005.321873,-144
4005.322941,-133
4005.323874,-111
4005.324827,-76
4005.32584,-66
4005.326826,-91
4005.327859,-124
4005.328827,-150
4005.329816,-183
4005.330797,-193
4005.331789,-167
4005.332782,-155
4005.333771,-151
4005.334739,-131
4005.335786,-115
4005.336776,-130
4005.337774,-167
4005.338764,-176
4005.33973,-159
4005.340756,-151
4005.341704,-151
4005.342712,-135
4005.343691,-132
4005.344739,-161
4005.345688,-184
4005.346696,-178
4005.347679,-171
4005.348674,-189
4005.349675,-219
4005.350666,-220
4005.351674,-192
4005.352674,-166
4005.353699,-174
4005.354622,-207
4005.355646,-221
4005.356625,-234
4005.35777,-232
4005.35862,-210
4005.359676,-176
4005.360653,-176
4005.361703,-193
4005.362589,-195
4005.363734,-192
4005.364547,-200
4005.36555,-209
4005.366558,-217
4005.367581,-205
4005.368554,-175
4005.369636,-172
4005.370542,-188
4005.371537,-193
4005.372552,-197
4005.373531,-186
4005.374496,-158
4005.375545,-133
4005.37655,-126
4005.377651,-127
4005.378529,-124
4005.379447,-105
4005.380482,-94
4005.381482,-96
4005.38244,-101
4005.383438,-127
4005.384563,-149
4005.38545,-132
4005.38646,-106
4005.387721,-127
4005.388404,-158
4005.389384,-149
4005.390427,-134
4005.391403,-109
4005.392406,-89
4005.393398,-87
4005.394427,-91
4005.395454,-81
4005.396361,-96
4005.397388,-127
4005.398346,-142
4005.39936,-128
4005.400342,-115
4005.401328,-98
4005.402337,-111
4005.40334,-142
4005.404353,-143
4005.405363,-138
4005.406357,-139
4005.407275,-143
4005.408265,-143
4005.409283,-123
4005.4103,-97
4005.411236,-114
4005.412241,-160
4005.41324,-170
4005.414252,-155
4005.415235,-159
4005.416223,-182
4005.417226,-170
4005.418211,-135
4005.419203,-94
4005.420201,-60
4005.421197,-49
4005.422179,-40
4005.423181,-28
4005.424146,-48
4005.425179,-54
4005.426166,-50
4005.427266,-60
4005.42816,-56
4005.429121,-17
4005.430156,8
4005.431172,-7
4005.432141,-49
4005.433119,-98
4005.434133,-113
4005.435126,-101
4005.43618,-92
4005.437062,-96
4005.438096,-109
4005.439072,-111
